PE UV       SUBTECH     SPECTRUM    ASCII       PEDS        4.00        
   -1
Sample6224.Sample.asc
24/04/11
00:33:02.00
24/04/11
00:33:02.00
Analyst

300,000000
1
Lambda 850
850N4111301
PerkinElmer UV WinLab 6.4.0.971 / 1.61.00 Lambda 800

0
0
2
0
0
VIS
1
1
1
RBeamAtt,SBeamAtt,150mm sphere / downward view
0
0
0
0
Fix
 
0
0,2
0
30
0
 
 
 
0
 
0
150
0
Front
100
 
S:100 R:100
 
0
0
0
 
0
 
 
 
0
 
 
0
0
0
0
0
 
 
 
 
0
0


0
0
#HDR
-1
-1
#GR
nm
EGY
1.0
0.0
900,000000
-1,000000
601
8
0,556300
-0,006700
#DATA
900,000000	-0,003000
899,000000	-0,004000
898,000000	-0,003800
897,000000	-0,006700
896,000000	-0,003900
895,000000	-0,001900
894,000000	-0,002100
893,000000	-0,003000
892,000000	-0,004400
891,000000	-0,001200
890,000000	-0,005900
889,000000	-0,001100
888,000000	-0,000800
887,000000	-0,004000
886,000000	-0,003700
885,000000	-0,001600
884,000000	-0,004800
883,000000	-0,003500
882,000000	-0,000600
881,000000	-0,002900
880,000000	-0,004000
879,000000	-0,002100
878,000000	-0,005800
877,000000	-0,002200
876,000000	-0,001300
875,000000	-0,001700
874,000000	-0,000700
873,000000	-0,005500
872,000000	-0,005900
871,000000	0,000600
870,000000	-0,002700
869,000000	-0,001600
868,000000	-0,001200
867,000000	-0,004100
866,000000	-0,003200
865,000000	-0,000300
864,000000	0,000700
863,000000	-0,000300
862,000000	0,000100
861,000000	-0,000500
860,000000	-0,003700
859,000000	-0,001200
858,000000	0,000800
857,000000	-0,001100
856,000000	-0,000100
855,000000	0,004700
854,000000	0,004700
853,000000	0,003800
852,000000	0,005400
851,000000	0,004100
850,000000	0,003700
849,000000	0,007700
848,000000	0,007500
847,000000	0,007300
846,000000	0,011200
845,000000	0,009900
844,000000	0,012000
843,000000	0,013200
842,000000	0,014500
841,000000	0,015800
840,000000	0,016500
839,000000	0,018100
838,000000	0,020000
837,000000	0,023000
836,000000	0,024400
835,000000	0,026800
834,000000	0,028100
833,000000	0,028700
832,000000	0,031200
831,000000	0,034100
830,000000	0,034500
829,000000	0,037200
828,000000	0,039500
827,000000	0,038400
826,000000	0,041100
825,000000	0,044100
824,000000	0,044100
823,000000	0,046000
822,000000	0,047900
821,000000	0,048100
820,000000	0,049700
819,000000	0,051700
818,000000	0,051700
817,000000	0,052000
816,000000	0,053600
815,000000	0,054400
814,000000	0,053900
813,000000	0,054500
812,000000	0,055800
811,000000	0,056700
810,000000	0,058100
809,000000	0,063000
808,000000	0,065000
807,000000	0,065700
806,000000	0,067400
805,000000	0,069200
804,000000	0,070300
803,000000	0,070300
802,000000	0,071500
801,000000	0,070600
800,000000	0,072900
799,000000	0,074300
798,000000	0,073000
797,000000	0,075400
796,000000	0,076000
795,000000	0,074800
794,000000	0,078100
793,000000	0,079700
792,000000	0,078900
791,000000	0,080600
790,000000	0,082200
789,000000	0,081800
788,000000	0,082500
787,000000	0,084600
786,000000	0,086000
785,000000	0,087000
784,000000	0,086300
783,000000	0,086700
782,000000	0,088000
781,000000	0,089300
780,000000	0,091700
779,000000	0,092500
778,000000	0,092700
777,000000	0,092700
776,000000	0,093500
775,000000	0,096000
774,000000	0,098100
773,000000	0,098500
772,000000	0,098200
771,000000	0,099000
770,000000	0,102200
769,000000	0,103500
768,000000	0,102900
767,000000	0,103800
766,000000	0,105000
765,000000	0,105300
764,000000	0,107200
763,000000	0,108400
762,000000	0,108400
761,000000	0,111000
760,000000	0,112000
759,000000	0,111600
758,000000	0,114700
757,000000	0,117400
756,000000	0,118200
755,000000	0,119000
754,000000	0,118600
753,000000	0,119900
752,000000	0,122400
751,000000	0,124600
750,000000	0,126200
749,000000	0,126700
748,000000	0,127100
747,000000	0,127300
746,000000	0,129900
745,000000	0,133300
744,000000	0,134200
743,000000	0,135000
742,000000	0,136400
741,000000	0,136400
740,000000	0,138800
739,000000	0,143100
738,000000	0,144000
737,000000	0,143900
736,000000	0,146400
735,000000	0,146900
734,000000	0,149100
733,000000	0,152700
732,000000	0,153700
731,000000	0,154600
730,000000	0,155300
729,000000	0,157100
728,000000	0,161300
727,000000	0,164500
726,000000	0,166700
725,000000	0,166800
724,000000	0,167900
723,000000	0,171300
722,000000	0,174700
721,000000	0,177000
720,000000	0,179900
719,000000	0,180800
718,000000	0,180700
717,000000	0,183200
716,000000	0,187900
715,000000	0,192000
714,000000	0,193900
713,000000	0,193200
712,000000	0,194800
711,000000	0,197600
710,000000	0,202000
709,000000	0,204800
708,000000	0,205000
707,000000	0,205600
706,000000	0,209200
705,000000	0,209700
704,000000	0,212000
703,000000	0,217100
702,000000	0,219600
701,000000	0,218300
700,000000	0,220000
699,000000	0,222800
698,000000	0,226600
697,000000	0,228600
696,000000	0,231100
695,000000	0,231500
694,000000	0,233000
693,000000	0,235200
692,000000	0,239600
691,000000	0,241200
690,000000	0,242200
689,000000	0,255000
688,000000	0,263000
687,000000	0,266300
686,000000	0,269000
685,000000	0,276700
684,000000	0,281500
683,000000	0,285300
682,000000	0,285600
681,000000	0,290700
680,000000	0,294200
679,000000	0,299700
678,000000	0,304100
677,000000	0,307600
676,000000	0,307300
675,000000	0,310800
674,000000	0,313200
673,000000	0,320200
672,000000	0,324500
671,000000	0,326200
670,000000	0,328100
669,000000	0,330600
668,000000	0,334000
667,000000	0,340900
666,000000	0,343200
665,000000	0,346400
664,000000	0,347300
663,000000	0,352400
662,000000	0,352700
661,000000	0,360900
660,000000	0,366000
659,000000	0,366400
658,000000	0,368000
657,000000	0,372400
656,000000	0,374000
655,000000	0,381800
654,000000	0,385000
653,000000	0,387700
652,000000	0,389800
651,000000	0,392800
650,000000	0,397600
649,000000	0,402400
648,000000	0,404700
647,000000	0,411200
646,000000	0,410200
645,000000	0,411500
644,000000	0,417200
643,000000	0,423300
642,000000	0,425500
641,000000	0,428800
640,000000	0,429900
639,000000	0,434500
638,000000	0,436900
637,000000	0,442800
636,000000	0,445900
635,000000	0,448500
634,000000	0,451500
633,000000	0,455600
632,000000	0,455900
631,000000	0,460900
630,000000	0,466200
629,000000	0,470100
628,000000	0,469600
627,000000	0,472200
626,000000	0,476600
625,000000	0,480200
624,000000	0,483500
623,000000	0,487800
622,000000	0,487600
621,000000	0,489900
620,000000	0,493800
619,000000	0,497800
618,000000	0,501300
617,000000	0,503400
616,000000	0,506800
615,000000	0,507200
614,000000	0,508800
613,000000	0,516000
612,000000	0,518400
611,000000	0,517600
610,000000	0,522200
609,000000	0,520700
608,000000	0,525800
607,000000	0,525500
606,000000	0,531000
605,000000	0,531300
604,000000	0,533400
603,000000	0,532500
602,000000	0,536200
601,000000	0,537800
600,000000	0,542800
599,000000	0,542300
598,000000	0,544300
597,000000	0,541500
596,000000	0,546400
595,000000	0,548800
594,000000	0,546700
593,000000	0,551200
592,000000	0,550800
591,000000	0,551900
590,000000	0,550700
589,000000	0,554900
588,000000	0,552500
587,000000	0,552900
586,000000	0,555900
585,000000	0,550100
584,000000	0,555600
583,000000	0,555100
582,000000	0,554000
581,000000	0,553800
580,000000	0,556300
579,000000	0,550800
578,000000	0,552500
577,000000	0,550700
576,000000	0,549800
575,000000	0,551100
574,000000	0,546400
573,000000	0,542200
572,000000	0,540500
571,000000	0,538000
570,000000	0,535200
569,000000	0,532000
568,000000	0,529300
567,000000	0,516900
566,000000	0,517900
565,000000	0,510300
564,000000	0,502500
563,000000	0,493700
562,000000	0,486500
561,000000	0,458300
560,000000	0,460100
559,000000	0,457000
558,000000	0,464400
557,000000	0,462100
556,000000	0,463400
555,000000	0,466900
554,000000	0,468500
553,000000	0,462900
552,000000	0,467100
551,000000	0,466300
550,000000	0,466400
549,000000	0,465000
548,000000	0,465800
547,000000	0,462500
546,000000	0,464000
545,000000	0,459000
544,000000	0,459800
543,000000	0,458900
542,000000	0,456200
541,000000	0,450900
540,000000	0,453800
539,000000	0,446500
538,000000	0,446600
537,000000	0,444600
536,000000	0,440000
535,000000	0,433200
534,000000	0,434700
533,000000	0,428500
532,000000	0,423800
531,000000	0,420900
530,000000	0,417600
529,000000	0,409800
528,000000	0,408500
527,000000	0,402300
526,000000	0,398800
525,000000	0,395100
524,000000	0,389700
523,000000	0,382200
522,000000	0,380700
521,000000	0,373300
520,000000	0,372000
519,000000	0,365900
518,000000	0,360200
517,000000	0,354600
516,000000	0,352700
515,000000	0,345400
514,000000	0,341600
513,000000	0,338500
512,000000	0,332500
511,000000	0,328600
510,000000	0,325900
509,000000	0,321100
508,000000	0,320000
507,000000	0,316300
506,000000	0,313300
505,000000	0,307800
504,000000	0,307700
503,000000	0,307300
502,000000	0,304900
501,000000	0,302800
500,000000	0,303600
499,000000	0,302200
498,000000	0,304200
497,000000	0,304200
496,000000	0,307300
495,000000	0,310200
494,000000	0,312300
493,000000	0,315900
492,000000	0,321100
491,000000	0,327300
490,000000	0,334600
489,000000	0,340900
488,000000	0,348100
487,000000	0,357800
486,000000	0,368200
485,000000	0,378300
484,000000	0,390600
483,000000	0,402000
482,000000	0,409200
481,000000	0,410900
480,000000	0,411200
479,000000	0,408400
478,000000	0,405600
477,000000	0,402100
476,000000	0,400000
475,000000	0,397300
474,000000	0,395100
473,000000	0,392900
472,000000	0,390100
471,000000	0,385600
470,000000	0,383300
469,000000	0,379100
468,000000	0,372100
467,000000	0,369400
466,000000	0,366700
465,000000	0,361800
464,000000	0,358400
463,000000	0,353900
462,000000	0,348000
461,000000	0,344600
460,000000	0,341600
459,000000	0,337200
458,000000	0,332900
457,000000	0,329800
456,000000	0,324700
455,000000	0,320700
454,000000	0,318700
453,000000	0,316300
452,000000	0,315000
451,000000	0,311900
450,000000	0,305800
449,000000	0,303700
448,000000	0,302200
447,000000	0,298500
446,000000	0,297600
445,000000	0,297500
444,000000	0,295300
443,000000	0,296600
442,000000	0,298000
441,000000	0,295800
440,000000	0,296000
439,000000	0,295400
438,000000	0,291300
437,000000	0,289900
436,000000	0,289500
435,000000	0,287600
434,000000	0,286300
433,000000	0,284200
432,000000	0,280800
431,000000	0,279400
430,000000	0,277700
429,000000	0,274800
428,000000	0,274600
427,000000	0,271400
426,000000	0,265800
425,000000	0,264600
424,000000	0,263800
423,000000	0,260800
422,000000	0,259700
421,000000	0,256700
420,000000	0,250900
419,000000	0,248900
418,000000	0,247300
417,000000	0,243800
416,000000	0,241800
415,000000	0,238300
414,000000	0,231700
413,000000	0,230100
412,000000	0,228900
411,000000	0,223500
410,000000	0,219900
409,000000	0,216600
408,000000	0,209800
407,000000	0,205900
406,000000	0,205400
405,000000	0,201400
404,000000	0,194800
403,000000	0,190100
402,000000	0,187100
401,000000	0,184100
400,000000	0,179300
399,000000	0,175200
398,000000	0,172300
397,000000	0,166700
396,000000	0,161000
395,000000	0,159100
394,000000	0,156500
393,000000	0,152400
392,000000	0,148500
391,000000	0,144600
390,000000	0,139500
389,000000	0,137800
388,000000	0,137100
387,000000	0,132800
386,000000	0,128400
385,000000	0,126400
384,000000	0,121100
383,000000	0,118000
382,000000	0,118200
381,000000	0,115500
380,000000	0,109800
379,000000	0,105600
378,000000	0,037100
377,000000	0,010700
376,000000	0,011900
375,000000	0,010600
374,000000	0,013600
373,000000	0,017600
372,000000	0,016600
371,000000	0,017500
370,000000	0,018700
369,000000	0,016800
368,000000	0,015700
367,000000	0,016800
366,000000	0,018800
365,000000	0,019200
364,000000	0,016700
363,000000	0,017000
362,000000	0,015800
361,000000	0,016900
360,000000	0,018900
359,000000	0,017300
358,000000	0,015900
357,000000	0,014700
356,000000	0,013700
355,000000	0,016500
354,000000	0,014700
353,000000	0,015200
352,000000	0,012100
351,000000	0,010400
350,000000	0,010900
349,000000	0,011200
348,000000	0,013500
347,000000	0,010900
346,000000	0,009900
345,000000	0,009200
344,000000	0,007200
343,000000	0,010600
342,000000	0,008700
341,000000	0,008700
340,000000	0,006500
339,000000	0,007800
338,000000	0,006500
337,000000	0,008500
336,000000	0,007100
335,000000	0,005800
334,000000	0,004600
333,000000	0,002700
332,000000	0,003700
331,000000	0,005400
330,000000	0,004400
329,000000	0,005200
328,000000	0,002900
327,000000	0,000300
326,000000	0,004000
325,000000	0,003500
324,000000	0,003000
323,000000	0,003100
322,000000	0,000700
321,000000	0,001300
320,000000	-0,000800
319,000000	0,003600
318,000000	0,016000
317,000000	0,015900
316,000000	0,015100
315,000000	0,013100
314,000000	0,015700
313,000000	0,014900
312,000000	0,013700
311,000000	0,011400
310,000000	0,010900
309,000000	0,007600
308,000000	0,012000
307,000000	0,010500
306,000000	0,010200
305,000000	0,007900
304,000000	0,009000
303,000000	0,006800
302,000000	0,007500
301,000000	0,007600
300,000000	0,007500
