PE UV       SUBTECH     SPECTRUM    ASCII       PEDS        4.00        
   -1
Sample6222.Sample.asc
24/04/11
00:24:25.00
24/04/11
00:24:25.00
Analyst

300,000000
1
Lambda 850
850N4111301
PerkinElmer UV WinLab 6.4.0.971 / 1.61.00 Lambda 800

0
0
2
0
0
VIS
1
1
1
RBeamAtt,SBeamAtt,150mm sphere / downward view
0
0
0
0
Fix
 
0
0,2
0
30
0
 
 
 
0
 
0
150
0
Front
100
 
S:100 R:100
 
0
0
0
 
0
 
 
 
0
 
 
0
0
0
0
0
 
 
 
 
0
0


0
0
#HDR
-1
-1
#GR
nm
EGY
1.0
0.0
900,000000
-1,000000
601
8
0,043500
-0,007500
#DATA
900,000000	-0,002600
899,000000	-0,002200
898,000000	-0,003100
897,000000	-0,006700
896,000000	-0,004100
895,000000	-0,001700
894,000000	-0,003300
893,000000	-0,000900
892,000000	-0,004700
891,000000	-0,003800
890,000000	-0,003300
889,000000	-0,002800
888,000000	-0,001200
887,000000	-0,002200
886,000000	-0,004400
885,000000	-0,002800
884,000000	-0,004200
883,000000	-0,002800
882,000000	-0,000200
881,000000	-0,001700
880,000000	-0,005200
879,000000	-0,000500
878,000000	-0,003000
877,000000	-0,003400
876,000000	-0,000300
875,000000	-0,001400
874,000000	-0,004800
873,000000	-0,002600
872,000000	-0,004900
871,000000	-0,001100
870,000000	-0,001900
869,000000	-0,001900
868,000000	-0,001900
867,000000	-0,005900
866,000000	-0,003700
865,000000	-0,001900
864,000000	-0,001700
863,000000	-0,002400
862,000000	-0,003200
861,000000	-0,003300
860,000000	-0,007500
859,000000	-0,002900
858,000000	-0,004800
857,000000	-0,004700
856,000000	-0,004500
855,000000	-0,001400
854,000000	-0,002000
853,000000	-0,000500
852,000000	-0,003600
851,000000	-0,004700
850,000000	-0,005400
849,000000	-0,000200
848,000000	-0,000100
847,000000	-0,001700
846,000000	-0,003100
845,000000	-0,002900
844,000000	-0,005800
843,000000	0,000700
842,000000	-0,001700
841,000000	-0,001800
840,000000	-0,004600
839,000000	-0,003300
838,000000	-0,004800
837,000000	-0,001200
836,000000	0,001200
835,000000	-0,000700
834,000000	-0,003900
833,000000	-0,003800
832,000000	-0,001400
831,000000	-0,001800
830,000000	0,001700
829,000000	0,000600
828,000000	-0,000700
827,000000	-0,002200
826,000000	-0,000900
825,000000	0,001900
824,000000	0,000700
823,000000	0,002000
822,000000	-0,001600
821,000000	-0,000900
820,000000	-0,000500
819,000000	0,002900
818,000000	0,003200
817,000000	-0,000300
816,000000	-0,000200
815,000000	-0,000800
814,000000	-0,001600
813,000000	0,002300
812,000000	0,002100
811,000000	0,001000
810,000000	-0,002500
809,000000	0,000400
808,000000	-0,000600
807,000000	0,001600
806,000000	0,000500
805,000000	0,003000
804,000000	0,002300
803,000000	0,001200
802,000000	-0,000400
801,000000	0,000100
800,000000	0,001300
799,000000	0,003000
798,000000	0,004200
797,000000	0,001400
796,000000	-0,000300
795,000000	0,001400
794,000000	0,002300
793,000000	0,004400
792,000000	0,002700
791,000000	0,002900
790,000000	0,000100
789,000000	0,001200
788,000000	0,001600
787,000000	0,002700
786,000000	0,003400
785,000000	0,002300
784,000000	0,002400
783,000000	0,001900
782,000000	0,002600
781,000000	0,006300
780,000000	0,004100
779,000000	0,003200
778,000000	0,001800
777,000000	0,002400
776,000000	0,003400
775,000000	0,005000
774,000000	0,005300
773,000000	0,003500
772,000000	0,002200
771,000000	0,003500
770,000000	0,005700
769,000000	0,003900
768,000000	0,004700
767,000000	0,003800
766,000000	0,002300
765,000000	0,002800
764,000000	0,005700
763,000000	0,006200
762,000000	0,005200
761,000000	0,005800
760,000000	0,003700
759,000000	0,003900
758,000000	0,005200
757,000000	0,006700
756,000000	0,006900
755,000000	0,004900
754,000000	0,005100
753,000000	0,004600
752,000000	0,005300
751,000000	0,006600
750,000000	0,006300
749,000000	0,006900
748,000000	0,006100
747,000000	0,005800
746,000000	0,007300
745,000000	0,007100
744,000000	0,007800
743,000000	0,007800
742,000000	0,005700
741,000000	0,005300
740,000000	0,008000
739,000000	0,008300
738,000000	0,007800
737,000000	0,009600
736,000000	0,006900
735,000000	0,007100
734,000000	0,007800
733,000000	0,008400
732,000000	0,008800
731,000000	0,007800
730,000000	0,008000
729,000000	0,008600
728,000000	0,008400
727,000000	0,010500
726,000000	0,011000
725,000000	0,010500
724,000000	0,008400
723,000000	0,009100
722,000000	0,009800
721,000000	0,010900
720,000000	0,010800
719,000000	0,009300
718,000000	0,008200
717,000000	0,009100
716,000000	0,010700
715,000000	0,010900
714,000000	0,012900
713,000000	0,013500
712,000000	0,010900
711,000000	0,011300
710,000000	0,013300
709,000000	0,012600
708,000000	0,012800
707,000000	0,011200
706,000000	0,011800
705,000000	0,011600
704,000000	0,013300
703,000000	0,013500
702,000000	0,014500
701,000000	0,014300
700,000000	0,012300
699,000000	0,014500
698,000000	0,012900
697,000000	0,014200
696,000000	0,016600
695,000000	0,013500
694,000000	0,012600
693,000000	0,013700
692,000000	0,015400
691,000000	0,015400
690,000000	0,015300
689,000000	0,016200
688,000000	0,017900
687,000000	0,017100
686,000000	0,017300
685,000000	0,019200
684,000000	0,018400
683,000000	0,018300
682,000000	0,016400
681,000000	0,018000
680,000000	0,017500
679,000000	0,019800
678,000000	0,020100
677,000000	0,019700
676,000000	0,018700
675,000000	0,017900
674,000000	0,020000
673,000000	0,021900
672,000000	0,022600
671,000000	0,024800
670,000000	0,019200
669,000000	0,020400
668,000000	0,021100
667,000000	0,023800
666,000000	0,022500
665,000000	0,023600
664,000000	0,023000
663,000000	0,022200
662,000000	0,024500
661,000000	0,023500
660,000000	0,025400
659,000000	0,025200
658,000000	0,022700
657,000000	0,024300
656,000000	0,024600
655,000000	0,026100
654,000000	0,028400
653,000000	0,027000
652,000000	0,028200
651,000000	0,027000
650,000000	0,028000
649,000000	0,026400
648,000000	0,028900
647,000000	0,028500
646,000000	0,026600
645,000000	0,027100
644,000000	0,027300
643,000000	0,030000
642,000000	0,029800
641,000000	0,030200
640,000000	0,031500
639,000000	0,027900
638,000000	0,031600
637,000000	0,032400
636,000000	0,031800
635,000000	0,031200
634,000000	0,031000
633,000000	0,029300
632,000000	0,030900
631,000000	0,032300
630,000000	0,035600
629,000000	0,032800
628,000000	0,035400
627,000000	0,030300
626,000000	0,035600
625,000000	0,031100
624,000000	0,036200
623,000000	0,034000
622,000000	0,036500
621,000000	0,032500
620,000000	0,036400
619,000000	0,036100
618,000000	0,034900
617,000000	0,038700
616,000000	0,034200
615,000000	0,033500
614,000000	0,035700
613,000000	0,036400
612,000000	0,039600
611,000000	0,035500
610,000000	0,035600
609,000000	0,035000
608,000000	0,036600
607,000000	0,037100
606,000000	0,038400
605,000000	0,036800
604,000000	0,039600
603,000000	0,036100
602,000000	0,036800
601,000000	0,038500
600,000000	0,038300
599,000000	0,039400
598,000000	0,039900
597,000000	0,035600
596,000000	0,040400
595,000000	0,038100
594,000000	0,038000
593,000000	0,039700
592,000000	0,040900
591,000000	0,036900
590,000000	0,041700
589,000000	0,038600
588,000000	0,041400
587,000000	0,039100
586,000000	0,043500
585,000000	0,035600
584,000000	0,041400
583,000000	0,040400
582,000000	0,040200
581,000000	0,038100
580,000000	0,043100
579,000000	0,037500
578,000000	0,039600
577,000000	0,037100
576,000000	0,039700
575,000000	0,039200
574,000000	0,039000
573,000000	0,038800
572,000000	0,037800
571,000000	0,038700
570,000000	0,038200
569,000000	0,040700
568,000000	0,036500
567,000000	0,036900
566,000000	0,038600
565,000000	0,035400
564,000000	0,036100
563,000000	0,036100
562,000000	0,034300
561,000000	0,033000
560,000000	0,030100
559,000000	0,032700
558,000000	0,032300
557,000000	0,033700
556,000000	0,032100
555,000000	0,034500
554,000000	0,034200
553,000000	0,031600
552,000000	0,032700
551,000000	0,033400
550,000000	0,032600
549,000000	0,031600
548,000000	0,033800
547,000000	0,030300
546,000000	0,033000
545,000000	0,032700
544,000000	0,032600
543,000000	0,032700
542,000000	0,032100
541,000000	0,034000
540,000000	0,031700
539,000000	0,028500
538,000000	0,031400
537,000000	0,033500
536,000000	0,031100
535,000000	0,031400
534,000000	0,030400
533,000000	0,027200
532,000000	0,029300
531,000000	0,031500
530,000000	0,029800
529,000000	0,027100
528,000000	0,029900
527,000000	0,029200
526,000000	0,027700
525,000000	0,027600
524,000000	0,029900
523,000000	0,024900
522,000000	0,025500
521,000000	0,026400
520,000000	0,027200
519,000000	0,026300
518,000000	0,024900
517,000000	0,022300
516,000000	0,024800
515,000000	0,022900
514,000000	0,023200
513,000000	0,023900
512,000000	0,024000
511,000000	0,023400
510,000000	0,022300
509,000000	0,019700
508,000000	0,022700
507,000000	0,024400
506,000000	0,020400
505,000000	0,020000
504,000000	0,018600
503,000000	0,019000
502,000000	0,020200
501,000000	0,022800
500,000000	0,020700
499,000000	0,020200
498,000000	0,019700
497,000000	0,021100
496,000000	0,021000
495,000000	0,021600
494,000000	0,021000
493,000000	0,021900
492,000000	0,020400
491,000000	0,022700
490,000000	0,024100
489,000000	0,023100
488,000000	0,024700
487,000000	0,024500
486,000000	0,025900
485,000000	0,026700
484,000000	0,028200
483,000000	0,029000
482,000000	0,029000
481,000000	0,028800
480,000000	0,028600
479,000000	0,028700
478,000000	0,029000
477,000000	0,029300
476,000000	0,028000
475,000000	0,027300
474,000000	0,029200
473,000000	0,028900
472,000000	0,027300
471,000000	0,026400
470,000000	0,027100
469,000000	0,026700
468,000000	0,025200
467,000000	0,025800
466,000000	0,027600
465,000000	0,025800
464,000000	0,024700
463,000000	0,025700
462,000000	0,024300
461,000000	0,024400
460,000000	0,025300
459,000000	0,024600
458,000000	0,023600
457,000000	0,024500
456,000000	0,022600
455,000000	0,022100
454,000000	0,023200
453,000000	0,023000
452,000000	0,022100
451,000000	0,019400
450,000000	0,020500
449,000000	0,021700
448,000000	0,021200
447,000000	0,021200
446,000000	0,020400
445,000000	0,018100
444,000000	0,019100
443,000000	0,020600
442,000000	0,021100
441,000000	0,021500
440,000000	0,020000
439,000000	0,019300
438,000000	0,018400
437,000000	0,018700
436,000000	0,020700
435,000000	0,020600
434,000000	0,020600
433,000000	0,019900
432,000000	0,018700
431,000000	0,019200
430,000000	0,019500
429,000000	0,018700
428,000000	0,018000
427,000000	0,017500
426,000000	0,016700
425,000000	0,017400
424,000000	0,018200
423,000000	0,018000
422,000000	0,019000
421,000000	0,017800
420,000000	0,016200
419,000000	0,017700
418,000000	0,017000
417,000000	0,015500
416,000000	0,015200
415,000000	0,013400
414,000000	0,013800
413,000000	0,016100
412,000000	0,016200
411,000000	0,014100
410,000000	0,013200
409,000000	0,012200
408,000000	0,012300
407,000000	0,014000
406,000000	0,014200
405,000000	0,013000
404,000000	0,011200
403,000000	0,011200
402,000000	0,010400
401,000000	0,010000
400,000000	0,012000
399,000000	0,010000
398,000000	0,007900
397,000000	0,007800
396,000000	0,008500
395,000000	0,009500
394,000000	0,009800
393,000000	0,007700
392,000000	0,008600
391,000000	0,007400
390,000000	0,005100
389,000000	0,008100
388,000000	0,009800
387,000000	0,005200
386,000000	0,004200
385,000000	0,004700
384,000000	0,006800
383,000000	0,006200
382,000000	0,006900
381,000000	0,007100
380,000000	0,005300
379,000000	0,005400
378,000000	-0,000400
377,000000	-0,001500
376,000000	-0,002700
375,000000	-0,004400
374,000000	-0,001300
373,000000	-0,000500
372,000000	-0,000600
371,000000	-0,003200
370,000000	-0,003400
369,000000	0,000200
368,000000	-0,000300
367,000000	-0,000700
366,000000	0,000300
365,000000	-0,003400
364,000000	-0,003900
363,000000	-0,000800
362,000000	-0,002300
361,000000	-0,001400
360,000000	0,001000
359,000000	-0,003100
358,000000	-0,004100
357,000000	-0,001700
356,000000	-0,002000
355,000000	-0,001300
354,000000	-0,001200
353,000000	-0,002200
352,000000	-0,005000
351,000000	-0,002400
350,000000	-0,000200
349,000000	-0,001700
348,000000	-0,000500
347,000000	-0,001600
346,000000	-0,005000
345,000000	-0,001400
344,000000	-0,003600
343,000000	-0,000700
342,000000	-0,000100
341,000000	-0,003100
340,000000	-0,003700
339,000000	-0,003200
338,000000	-0,003200
337,000000	-0,000400
336,000000	-0,001100
335,000000	-0,005400
334,000000	-0,005000
333,000000	-0,003100
332,000000	-0,002000
331,000000	-0,001800
330,000000	0,000200
329,000000	-0,002700
328,000000	-0,007200
327,000000	-0,001300
326,000000	-0,003700
325,000000	-0,002300
324,000000	0,000100
323,000000	-0,003300
322,000000	-0,002300
321,000000	-0,006700
320,000000	-0,001600
319,000000	-0,001600
318,000000	-0,001200
317,000000	-0,001200
316,000000	-0,006600
315,000000	-0,001200
314,000000	-0,004000
313,000000	-0,000500
312,000000	0,000700
311,000000	-0,000400
310,000000	-0,006600
309,000000	-0,001700
308,000000	-0,002500
307,000000	-0,000600
306,000000	-0,000300
305,000000	-0,003900
304,000000	-0,005000
303,000000	-0,005700
302,000000	-0,000600
301,000000	0,000700
300,000000	-0,002800
