PE UV       SUBTECH     SPECTRUM    ASCII       PEDS        4.00        
   -1
Sample6216.Sample.asc
24/04/10
23:55:11.00
24/04/10
23:55:11.00
Analyst

300,000000
1
Lambda 850
850N4111301
PerkinElmer UV WinLab 6.4.0.971 / 1.61.00 Lambda 800

0
0
2
0
0
VIS
1
1
1
RBeamAtt,SBeamAtt,150mm sphere / downward view
0
0
0
0
Fix
 
0
0,2
0
30
0
 
 
 
0
 
0
150
0
Front
100
 
S:100 R:100
 
0
0
0
 
0
 
 
 
0
 
 
0
0
0
0
0
 
 
 
 
0
0


0
0
#HDR
-1
-1
#GR
nm
EGY
1.0
0.0
900,000000
-1,000000
601
8
0,041400
-0,007000
#DATA
900,000000	-0,002400
899,000000	-0,002400
898,000000	-0,003500
897,000000	-0,004300
896,000000	-0,007000
895,000000	-0,003500
894,000000	-0,003700
893,000000	-0,003200
892,000000	-0,004800
891,000000	-0,001500
890,000000	-0,003600
889,000000	-0,002300
888,000000	-0,002300
887,000000	-0,002700
886,000000	-0,004400
885,000000	-0,004900
884,000000	-0,005000
883,000000	-0,000700
882,000000	-0,002500
881,000000	-0,003300
880,000000	-0,003600
879,000000	-0,005000
878,000000	-0,006700
877,000000	-0,002500
876,000000	-0,001500
875,000000	-0,001400
874,000000	-0,003900
873,000000	-0,003800
872,000000	-0,004600
871,000000	-0,002100
870,000000	-0,001800
869,000000	-0,000600
868,000000	-0,003900
867,000000	-0,003900
866,000000	-0,005900
865,000000	-0,003100
864,000000	-0,001800
863,000000	-0,002400
862,000000	-0,004300
861,000000	-0,005000
860,000000	-0,005200
859,000000	-0,004000
858,000000	-0,003200
857,000000	-0,005200
856,000000	-0,005000
855,000000	-0,001600
854,000000	-0,002400
853,000000	-0,000700
852,000000	-0,003300
851,000000	-0,005200
850,000000	-0,004600
849,000000	-0,001000
848,000000	-0,001900
847,000000	-0,002000
846,000000	-0,003500
845,000000	-0,004400
844,000000	-0,004500
843,000000	0,000200
842,000000	-0,001700
841,000000	-0,003400
840,000000	-0,003000
839,000000	-0,003400
838,000000	-0,005400
837,000000	-0,001000
836,000000	0,000000
835,000000	-0,002100
834,000000	-0,003300
833,000000	-0,002600
832,000000	-0,002400
831,000000	-0,000100
830,000000	0,000900
829,000000	0,000800
828,000000	-0,001500
827,000000	-0,000800
826,000000	-0,001100
825,000000	0,000700
824,000000	0,003000
823,000000	0,000100
822,000000	-0,000300
821,000000	-0,002000
820,000000	-0,001500
819,000000	0,001100
818,000000	-0,000100
817,000000	0,000900
816,000000	-0,000900
815,000000	-0,002100
814,000000	0,000300
813,000000	0,001600
812,000000	0,001100
811,000000	0,001400
810,000000	-0,000200
809,000000	-0,000100
808,000000	-0,001700
807,000000	-0,000400
806,000000	0,000600
805,000000	0,001100
804,000000	0,001100
803,000000	0,001600
802,000000	0,000900
801,000000	0,000400
800,000000	0,000100
799,000000	0,001900
798,000000	0,001300
797,000000	-0,000200
796,000000	-0,000400
795,000000	0,001000
794,000000	0,001000
793,000000	0,001200
792,000000	0,002300
791,000000	0,002100
790,000000	0,001400
789,000000	0,001700
788,000000	0,000900
787,000000	0,001300
786,000000	0,003000
785,000000	0,002600
784,000000	0,000800
783,000000	0,001000
782,000000	0,001500
781,000000	0,003100
780,000000	0,003600
779,000000	0,002200
778,000000	0,001600
777,000000	0,001500
776,000000	0,002100
775,000000	0,004000
774,000000	0,001500
773,000000	0,001600
772,000000	0,002900
771,000000	0,003300
770,000000	0,002700
769,000000	0,004000
768,000000	0,004300
767,000000	0,003300
766,000000	0,001500
765,000000	0,001900
764,000000	0,002600
763,000000	0,004000
762,000000	0,004600
761,000000	0,003800
760,000000	0,002600
759,000000	0,002300
758,000000	0,003300
757,000000	0,005900
756,000000	0,005800
755,000000	0,003400
754,000000	0,003000
753,000000	0,004200
752,000000	0,005200
751,000000	0,005900
750,000000	0,005200
749,000000	0,004500
748,000000	0,004400
747,000000	0,003600
746,000000	0,005200
745,000000	0,007800
744,000000	0,006500
743,000000	0,005100
742,000000	0,005000
741,000000	0,004300
740,000000	0,005800
739,000000	0,007200
738,000000	0,008100
737,000000	0,007300
736,000000	0,003800
735,000000	0,005900
734,000000	0,008100
733,000000	0,006400
732,000000	0,007500
731,000000	0,007700
730,000000	0,005500
729,000000	0,006300
728,000000	0,008500
727,000000	0,009200
726,000000	0,009500
725,000000	0,007000
724,000000	0,007300
723,000000	0,007700
722,000000	0,009700
721,000000	0,011900
720,000000	0,009800
719,000000	0,008000
718,000000	0,009400
717,000000	0,008400
716,000000	0,010800
715,000000	0,013200
714,000000	0,011700
713,000000	0,009500
712,000000	0,009200
711,000000	0,008500
710,000000	0,011200
709,000000	0,011900
708,000000	0,011800
707,000000	0,013000
706,000000	0,009800
705,000000	0,010800
704,000000	0,012900
703,000000	0,012000
702,000000	0,012700
701,000000	0,012000
700,000000	0,011000
699,000000	0,011200
698,000000	0,013900
697,000000	0,014100
696,000000	0,014100
695,000000	0,011900
694,000000	0,011500
693,000000	0,012200
692,000000	0,014600
691,000000	0,014800
690,000000	0,014900
689,000000	0,016200
688,000000	0,018000
687,000000	0,014000
686,000000	0,017400
685,000000	0,018000
684,000000	0,017500
683,000000	0,018700
682,000000	0,019400
681,000000	0,016700
680,000000	0,018300
679,000000	0,019100
678,000000	0,019200
677,000000	0,020700
676,000000	0,021300
675,000000	0,018900
674,000000	0,017900
673,000000	0,020400
672,000000	0,021900
671,000000	0,021500
670,000000	0,021700
669,000000	0,020100
668,000000	0,022500
667,000000	0,022700
666,000000	0,022300
665,000000	0,021700
664,000000	0,020700
663,000000	0,021400
662,000000	0,021200
661,000000	0,025200
660,000000	0,024400
659,000000	0,024600
658,000000	0,027200
657,000000	0,021800
656,000000	0,024600
655,000000	0,024500
654,000000	0,025900
653,000000	0,025300
652,000000	0,024100
651,000000	0,025100
650,000000	0,024700
649,000000	0,027000
648,000000	0,026900
647,000000	0,026700
646,000000	0,030300
645,000000	0,026400
644,000000	0,026800
643,000000	0,027100
642,000000	0,030900
641,000000	0,029100
640,000000	0,025400
639,000000	0,028200
638,000000	0,028700
637,000000	0,030900
636,000000	0,028500
635,000000	0,030100
634,000000	0,033800
633,000000	0,027900
632,000000	0,031400
631,000000	0,030900
630,000000	0,030400
629,000000	0,032300
628,000000	0,031600
627,000000	0,030200
626,000000	0,031100
625,000000	0,034800
624,000000	0,034000
623,000000	0,032400
622,000000	0,031700
621,000000	0,033200
620,000000	0,032600
619,000000	0,035200
618,000000	0,034500
617,000000	0,034300
616,000000	0,032100
615,000000	0,034100
614,000000	0,035800
613,000000	0,034200
612,000000	0,036800
611,000000	0,037000
610,000000	0,037300
609,000000	0,033200
608,000000	0,037800
607,000000	0,036800
606,000000	0,036800
605,000000	0,036300
604,000000	0,040400
603,000000	0,034400
602,000000	0,037200
601,000000	0,036700
600,000000	0,039900
599,000000	0,036500
598,000000	0,037800
597,000000	0,035700
596,000000	0,035200
595,000000	0,039600
594,000000	0,037900
593,000000	0,037600
592,000000	0,039500
591,000000	0,038800
590,000000	0,039700
589,000000	0,039300
588,000000	0,038400
587,000000	0,040300
586,000000	0,040400
585,000000	0,036900
584,000000	0,040100
583,000000	0,036400
582,000000	0,039800
581,000000	0,041400
580,000000	0,038100
579,000000	0,036300
578,000000	0,040600
577,000000	0,037400
576,000000	0,040000
575,000000	0,038300
574,000000	0,040200
573,000000	0,037800
572,000000	0,036700
571,000000	0,038000
570,000000	0,040300
569,000000	0,035700
568,000000	0,036600
567,000000	0,038000
566,000000	0,034400
565,000000	0,036000
564,000000	0,036800
563,000000	0,034800
562,000000	0,034300
561,000000	0,030700
560,000000	0,031400
559,000000	0,032100
558,000000	0,030800
557,000000	0,031500
556,000000	0,033900
555,000000	0,033200
554,000000	0,030900
553,000000	0,033700
552,000000	0,032900
551,000000	0,032400
550,000000	0,032000
549,000000	0,033700
548,000000	0,033000
547,000000	0,028300
546,000000	0,035100
545,000000	0,030800
544,000000	0,032000
543,000000	0,031100
542,000000	0,031900
541,000000	0,032700
540,000000	0,029200
539,000000	0,030400
538,000000	0,031800
537,000000	0,032200
536,000000	0,032900
535,000000	0,027900
534,000000	0,029000
533,000000	0,030000
532,000000	0,030300
531,000000	0,027700
530,000000	0,028900
529,000000	0,030700
528,000000	0,026700
527,000000	0,026600
526,000000	0,028100
525,000000	0,026600
524,000000	0,027000
523,000000	0,028000
522,000000	0,025300
521,000000	0,022700
520,000000	0,025600
519,000000	0,027000
518,000000	0,025700
517,000000	0,021800
516,000000	0,025300
515,000000	0,024300
514,000000	0,023900
513,000000	0,023200
512,000000	0,024600
511,000000	0,021900
510,000000	0,021600
509,000000	0,020500
508,000000	0,022300
507,000000	0,022200
506,000000	0,021400
505,000000	0,018800
504,000000	0,020900
503,000000	0,019300
502,000000	0,020400
501,000000	0,021100
500,000000	0,020500
499,000000	0,020000
498,000000	0,018700
497,000000	0,018000
496,000000	0,021200
495,000000	0,022000
494,000000	0,020600
493,000000	0,019800
492,000000	0,021600
491,000000	0,021100
490,000000	0,023400
489,000000	0,023600
488,000000	0,024200
487,000000	0,026000
486,000000	0,024000
485,000000	0,024900
484,000000	0,029100
483,000000	0,028500
482,000000	0,028200
481,000000	0,028900
480,000000	0,026800
479,000000	0,025800
478,000000	0,028900
477,000000	0,028900
476,000000	0,027200
475,000000	0,026000
474,000000	0,026700
473,000000	0,027500
472,000000	0,027600
471,000000	0,028100
470,000000	0,025600
469,000000	0,023400
468,000000	0,024400
467,000000	0,025500
466,000000	0,026600
465,000000	0,026600
464,000000	0,025000
463,000000	0,022300
462,000000	0,022200
461,000000	0,023700
460,000000	0,023900
459,000000	0,023000
458,000000	0,022700
457,000000	0,021500
456,000000	0,019200
455,000000	0,020600
454,000000	0,024000
453,000000	0,022700
452,000000	0,020400
451,000000	0,019300
450,000000	0,020000
449,000000	0,020800
448,000000	0,021100
447,000000	0,021100
446,000000	0,020500
445,000000	0,019500
444,000000	0,019800
443,000000	0,020700
442,000000	0,020700
441,000000	0,020300
440,000000	0,021300
439,000000	0,020400
438,000000	0,018600
437,000000	0,019100
436,000000	0,019500
435,000000	0,019800
434,000000	0,021700
433,000000	0,020800
432,000000	0,017700
431,000000	0,018500
430,000000	0,019700
429,000000	0,018800
428,000000	0,017900
427,000000	0,017200
426,000000	0,016000
425,000000	0,016200
424,000000	0,018100
423,000000	0,017500
422,000000	0,015500
421,000000	0,015200
420,000000	0,015100
419,000000	0,016200
418,000000	0,017600
417,000000	0,016500
416,000000	0,014500
415,000000	0,013000
414,000000	0,014200
413,000000	0,016000
412,000000	0,015100
411,000000	0,013300
410,000000	0,013000
409,000000	0,011500
408,000000	0,011500
407,000000	0,012900
406,000000	0,013100
405,000000	0,011100
404,000000	0,010300
403,000000	0,010100
402,000000	0,011200
401,000000	0,011300
400,000000	0,011700
399,000000	0,009400
398,000000	0,007600
397,000000	0,008300
396,000000	0,008500
395,000000	0,008600
394,000000	0,010100
393,000000	0,010400
392,000000	0,009500
391,000000	0,008300
390,000000	0,005800
389,000000	0,006800
388,000000	0,007300
387,000000	0,007400
386,000000	0,006100
385,000000	0,005300
384,000000	0,005000
383,000000	0,006200
382,000000	0,006200
381,000000	0,006100
380,000000	0,008400
379,000000	0,006900
378,000000	-0,000400
377,000000	-0,005000
376,000000	-0,003300
375,000000	0,000100
374,000000	-0,002200
373,000000	-0,001600
372,000000	0,000800
371,000000	0,000400
370,000000	-0,003900
369,000000	-0,004300
368,000000	-0,000900
367,000000	-0,000600
366,000000	-0,001300
365,000000	-0,002900
364,000000	-0,005100
363,000000	-0,004300
362,000000	0,000100
361,000000	-0,001700
360,000000	-0,000200
359,000000	-0,002600
358,000000	-0,003900
357,000000	0,000100
356,000000	-0,002700
355,000000	-0,000300
354,000000	0,000200
353,000000	-0,005600
352,000000	-0,002900
351,000000	-0,001100
350,000000	-0,002400
349,000000	-0,001800
348,000000	-0,001200
347,000000	-0,002000
346,000000	-0,004000
345,000000	-0,002200
344,000000	-0,002900
343,000000	-0,003200
342,000000	-0,000300
341,000000	-0,002300
340,000000	-0,004500
339,000000	-0,003300
338,000000	-0,003000
337,000000	-0,001000
336,000000	-0,003300
335,000000	-0,002400
334,000000	-0,002600
333,000000	-0,005900
332,000000	-0,002300
331,000000	-0,000700
330,000000	-0,002400
329,000000	-0,002200
328,000000	-0,006000
327,000000	-0,004100
326,000000	-0,003700
325,000000	-0,000700
324,000000	-0,002100
323,000000	-0,002900
322,000000	-0,003900
321,000000	-0,005400
320,000000	-0,001600
319,000000	-0,002000
318,000000	-0,003500
317,000000	-0,001500
316,000000	-0,004600
315,000000	-0,002800
314,000000	-0,004500
313,000000	-0,000100
312,000000	-0,001000
311,000000	-0,002200
310,000000	-0,004700
309,000000	-0,001900
308,000000	-0,004500
307,000000	-0,001400
306,000000	-0,001400
305,000000	-0,004400
304,000000	-0,003900
303,000000	-0,005000
302,000000	-0,004100
301,000000	-0,001000
300,000000	-0,001400
