PE UV       SUBTECH     SPECTRUM    ASCII       PEDS        4.00        
   -1
Sample6218.Sample.asc
24/04/11
00:04:32.00
24/04/11
00:04:32.00
Analyst

300,000000
1
Lambda 850
850N4111301
PerkinElmer UV WinLab 6.4.0.971 / 1.61.00 Lambda 800

0
0
2
0
0
VIS
1
1
1
RBeamAtt,SBeamAtt,150mm sphere / downward view
0
0
0
0
Fix
 
0
0,2
0
30
0
 
 
 
0
 
0
150
0
Front
100
 
S:100 R:100
 
0
0
0
 
0
 
 
 
0
 
 
0
0
0
0
0
 
 
 
 
0
0


0
0
#HDR
-1
-1
#GR
nm
EGY
1.0
0.0
900,000000
-1,000000
601
8
0,034500
-0,007600
#DATA
900,000000	-0,004300
899,000000	-0,003500
898,000000	-0,002600
897,000000	-0,004800
896,000000	-0,006100
895,000000	-0,001200
894,000000	-0,001900
893,000000	-0,001300
892,000000	-0,003900
891,000000	-0,004200
890,000000	-0,005000
889,000000	-0,001700
888,000000	-0,001500
887,000000	-0,003300
886,000000	-0,004700
885,000000	-0,003000
884,000000	-0,005800
883,000000	-0,001500
882,000000	-0,001600
881,000000	-0,004000
880,000000	-0,002400
879,000000	-0,003200
878,000000	-0,007100
877,000000	-0,003300
876,000000	-0,000100
875,000000	-0,002200
874,000000	-0,005600
873,000000	-0,002100
872,000000	-0,003700
871,000000	-0,002900
870,000000	-0,001700
869,000000	-0,001100
868,000000	-0,004500
867,000000	-0,005700
866,000000	-0,005700
865,000000	-0,003000
864,000000	-0,002100
863,000000	-0,001400
862,000000	-0,003600
861,000000	-0,005800
860,000000	-0,005500
859,000000	-0,005300
858,000000	-0,004800
857,000000	-0,004000
856,000000	-0,006400
855,000000	-0,002700
854,000000	-0,000200
853,000000	-0,002400
852,000000	-0,004300
851,000000	-0,004800
850,000000	-0,004400
849,000000	-0,001100
848,000000	-0,002100
847,000000	-0,001500
846,000000	-0,003400
845,000000	-0,004600
844,000000	-0,004000
843,000000	-0,001200
842,000000	-0,001900
841,000000	-0,000600
840,000000	-0,002900
839,000000	-0,004900
838,000000	-0,003400
837,000000	0,001200
836,000000	0,000500
835,000000	-0,002000
834,000000	-0,002500
833,000000	-0,001900
832,000000	-0,002400
831,000000	-0,000400
830,000000	0,000600
829,000000	0,000200
828,000000	-0,003500
827,000000	-0,002800
826,000000	-0,002600
825,000000	0,001900
824,000000	0,000500
823,000000	-0,000700
822,000000	-0,000200
821,000000	-0,001600
820,000000	-0,001400
819,000000	0,002400
818,000000	0,001500
817,000000	-0,000100
816,000000	-0,000700
815,000000	-0,001700
814,000000	-0,000600
813,000000	0,003000
812,000000	0,001700
811,000000	0,000900
810,000000	-0,001400
809,000000	-0,000200
808,000000	-0,000500
807,000000	-0,000300
806,000000	0,001300
805,000000	0,001800
804,000000	0,002000
803,000000	0,001500
802,000000	-0,000500
801,000000	0,000400
800,000000	-0,000200
799,000000	0,002600
798,000000	0,003400
797,000000	0,000500
796,000000	-0,000500
795,000000	0,000000
794,000000	-0,000200
793,000000	0,001400
792,000000	0,002900
791,000000	0,001100
790,000000	-0,000400
789,000000	0,000400
788,000000	0,002300
787,000000	0,004300
786,000000	0,001800
785,000000	0,001400
784,000000	0,000300
783,000000	0,000600
782,000000	0,001700
781,000000	0,004300
780,000000	0,002900
779,000000	0,000600
778,000000	0,001800
777,000000	0,002500
776,000000	0,001400
775,000000	0,003200
774,000000	0,003400
773,000000	0,001600
772,000000	0,001100
771,000000	0,003000
770,000000	0,004000
769,000000	0,005100
768,000000	0,003800
767,000000	0,002200
766,000000	0,001200
765,000000	0,001900
764,000000	0,003200
763,000000	0,005000
762,000000	0,004600
761,000000	0,005300
760,000000	0,004500
759,000000	0,002500
758,000000	0,003900
757,000000	0,004900
756,000000	0,004600
755,000000	0,004100
754,000000	0,003800
753,000000	0,002800
752,000000	0,003200
751,000000	0,005100
750,000000	0,005600
749,000000	0,004600
748,000000	0,003000
747,000000	0,003400
746,000000	0,003900
745,000000	0,006100
744,000000	0,007800
743,000000	0,005700
742,000000	0,002800
741,000000	0,005800
740,000000	0,007800
739,000000	0,005500
738,000000	0,005300
737,000000	0,006900
736,000000	0,005600
735,000000	0,006700
734,000000	0,007400
733,000000	0,006100
732,000000	0,006200
731,000000	0,006300
730,000000	0,005200
729,000000	0,004800
728,000000	0,008000
727,000000	0,010400
726,000000	0,007700
725,000000	0,005100
724,000000	0,007200
723,000000	0,007300
722,000000	0,008100
721,000000	0,010000
720,000000	0,008700
719,000000	0,006500
718,000000	0,006400
717,000000	0,007400
716,000000	0,009000
715,000000	0,009400
714,000000	0,011000
713,000000	0,011400
712,000000	0,007400
711,000000	0,009500
710,000000	0,010400
709,000000	0,008800
708,000000	0,009800
707,000000	0,011700
706,000000	0,009500
705,000000	0,010100
704,000000	0,010600
703,000000	0,010500
702,000000	0,010300
701,000000	0,009400
700,000000	0,008700
699,000000	0,007600
698,000000	0,009900
697,000000	0,010100
696,000000	0,009300
695,000000	0,008400
694,000000	0,008900
693,000000	0,006800
692,000000	0,008800
691,000000	0,010400
690,000000	0,010800
689,000000	0,010100
688,000000	0,010800
687,000000	0,007400
686,000000	0,009700
685,000000	0,010500
684,000000	0,007400
683,000000	0,009000
682,000000	0,012800
681,000000	0,010000
680,000000	0,008900
679,000000	0,009100
678,000000	0,010900
677,000000	0,011500
676,000000	0,010800
675,000000	0,007400
674,000000	0,010100
673,000000	0,011400
672,000000	0,011100
671,000000	0,011800
670,000000	0,012800
669,000000	0,010900
668,000000	0,011900
667,000000	0,012000
666,000000	0,013500
665,000000	0,013100
664,000000	0,014000
663,000000	0,011800
662,000000	0,010900
661,000000	0,016400
660,000000	0,015300
659,000000	0,015100
658,000000	0,017000
657,000000	0,012600
656,000000	0,015400
655,000000	0,017400
654,000000	0,016400
653,000000	0,016800
652,000000	0,020300
651,000000	0,015600
650,000000	0,017500
649,000000	0,018100
648,000000	0,019400
647,000000	0,019700
646,000000	0,019800
645,000000	0,016800
644,000000	0,020700
643,000000	0,018800
642,000000	0,021600
641,000000	0,022100
640,000000	0,023100
639,000000	0,020100
638,000000	0,022200
637,000000	0,019700
636,000000	0,021900
635,000000	0,024100
634,000000	0,022300
633,000000	0,022000
632,000000	0,021400
631,000000	0,023800
630,000000	0,024600
629,000000	0,022500
628,000000	0,026600
627,000000	0,022100
626,000000	0,025200
625,000000	0,021700
624,000000	0,025500
623,000000	0,023600
622,000000	0,026300
621,000000	0,022700
620,000000	0,025400
619,000000	0,024300
618,000000	0,026400
617,000000	0,027300
616,000000	0,024900
615,000000	0,025700
614,000000	0,025100
613,000000	0,029200
612,000000	0,024400
611,000000	0,028700
610,000000	0,029700
609,000000	0,023100
608,000000	0,028300
607,000000	0,028600
606,000000	0,027400
605,000000	0,029800
604,000000	0,030300
603,000000	0,025000
602,000000	0,029400
601,000000	0,027800
600,000000	0,030400
599,000000	0,029200
598,000000	0,029100
597,000000	0,031100
596,000000	0,028900
595,000000	0,027500
594,000000	0,033000
593,000000	0,030400
592,000000	0,030200
591,000000	0,031600
590,000000	0,030400
589,000000	0,031000
588,000000	0,031400
587,000000	0,030900
586,000000	0,029600
585,000000	0,028700
584,000000	0,032300
583,000000	0,031700
582,000000	0,030700
581,000000	0,031500
580,000000	0,034500
579,000000	0,028400
578,000000	0,030800
577,000000	0,030300
576,000000	0,031100
575,000000	0,031200
574,000000	0,032600
573,000000	0,027900
572,000000	0,032100
571,000000	0,028400
570,000000	0,031400
569,000000	0,029700
568,000000	0,029600
567,000000	0,033200
566,000000	0,029300
565,000000	0,027200
564,000000	0,029800
563,000000	0,030800
562,000000	0,027800
561,000000	0,025300
560,000000	0,024800
559,000000	0,029200
558,000000	0,026500
557,000000	0,023900
556,000000	0,026700
555,000000	0,028400
554,000000	0,028400
553,000000	0,024100
552,000000	0,027600
551,000000	0,027300
550,000000	0,026900
549,000000	0,025700
548,000000	0,025900
547,000000	0,028300
546,000000	0,026600
545,000000	0,023600
544,000000	0,026300
543,000000	0,028200
542,000000	0,026900
541,000000	0,027100
540,000000	0,025300
539,000000	0,023200
538,000000	0,025200
537,000000	0,027200
536,000000	0,024300
535,000000	0,024900
534,000000	0,023800
533,000000	0,021200
532,000000	0,023100
531,000000	0,023500
530,000000	0,024000
529,000000	0,022700
528,000000	0,020800
527,000000	0,020400
526,000000	0,021200
525,000000	0,021200
524,000000	0,022600
523,000000	0,018800
522,000000	0,021400
521,000000	0,019400
520,000000	0,019600
519,000000	0,019000
518,000000	0,019000
517,000000	0,019300
516,000000	0,017000
515,000000	0,014900
514,000000	0,016600
513,000000	0,017300
512,000000	0,016100
511,000000	0,014500
510,000000	0,013500
509,000000	0,013600
508,000000	0,015600
507,000000	0,013200
506,000000	0,012600
505,000000	0,014100
504,000000	0,013200
503,000000	0,013000
502,000000	0,012800
501,000000	0,012400
500,000000	0,012200
499,000000	0,011400
498,000000	0,010900
497,000000	0,011500
496,000000	0,011900
495,000000	0,012500
494,000000	0,012400
493,000000	0,010100
492,000000	0,009800
491,000000	0,011100
490,000000	0,012900
489,000000	0,013500
488,000000	0,013300
487,000000	0,013200
486,000000	0,013000
485,000000	0,012400
484,000000	0,014500
483,000000	0,017000
482,000000	0,016300
481,000000	0,014200
480,000000	0,014900
479,000000	0,014600
478,000000	0,016100
477,000000	0,018200
476,000000	0,015700
475,000000	0,013500
474,000000	0,013900
473,000000	0,015000
472,000000	0,015700
471,000000	0,015400
470,000000	0,014400
469,000000	0,012300
468,000000	0,012100
467,000000	0,014100
466,000000	0,015000
465,000000	0,013300
464,000000	0,013800
463,000000	0,014700
462,000000	0,012200
461,000000	0,011800
460,000000	0,012700
459,000000	0,012500
458,000000	0,012300
457,000000	0,010500
456,000000	0,010400
455,000000	0,010500
454,000000	0,011200
453,000000	0,012500
452,000000	0,012700
451,000000	0,011300
450,000000	0,009900
449,000000	0,010900
448,000000	0,010500
447,000000	0,010300
446,000000	0,011600
445,000000	0,010600
444,000000	0,008000
443,000000	0,007800
442,000000	0,008900
441,000000	0,008500
440,000000	0,008700
439,000000	0,008900
438,000000	0,007700
437,000000	0,009300
436,000000	0,011100
435,000000	0,009400
434,000000	0,007600
433,000000	0,008500
432,000000	0,007900
431,000000	0,008300
430,000000	0,010000
429,000000	0,008700
428,000000	0,010400
427,000000	0,009200
426,000000	0,007500
425,000000	0,009200
424,000000	0,008800
423,000000	0,009800
422,000000	0,010400
421,000000	0,008000
420,000000	0,007900
419,000000	0,008200
418,000000	0,007100
417,000000	0,006800
416,000000	0,005500
415,000000	0,004400
414,000000	0,006000
413,000000	0,006400
412,000000	0,007500
411,000000	0,006100
410,000000	0,004300
409,000000	0,004300
408,000000	0,005200
407,000000	0,006200
406,000000	0,008000
405,000000	0,006900
404,000000	0,006100
403,000000	0,006600
402,000000	0,005000
401,000000	0,004800
400,000000	0,005000
399,000000	0,005600
398,000000	0,005700
397,000000	0,004000
396,000000	0,001900
395,000000	0,003500
394,000000	0,003500
393,000000	0,002500
392,000000	0,002300
391,000000	0,001500
390,000000	0,004000
389,000000	0,004000
388,000000	0,002400
387,000000	0,003300
386,000000	0,003700
385,000000	0,002100
384,000000	-0,001100
383,000000	0,001400
382,000000	0,002600
381,000000	0,000200
380,000000	-0,000000
379,000000	0,000800
378,000000	-0,001600
377,000000	-0,004200
376,000000	-0,005700
375,000000	-0,003600
374,000000	-0,002400
373,000000	-0,001300
372,000000	-0,001000
371,000000	-0,002000
370,000000	-0,003100
369,000000	-0,005800
368,000000	-0,002600
367,000000	-0,000900
366,000000	-0,002700
365,000000	-0,003700
364,000000	-0,003100
363,000000	-0,005600
362,000000	-0,002800
361,000000	0,000800
360,000000	-0,001800
359,000000	-0,004100
358,000000	-0,003600
357,000000	-0,004100
356,000000	-0,002600
355,000000	-0,001700
354,000000	-0,000600
353,000000	-0,002900
352,000000	-0,005000
351,000000	-0,005700
350,000000	-0,002700
349,000000	-0,002900
348,000000	-0,001000
347,000000	-0,001500
346,000000	-0,004100
345,000000	-0,005200
344,000000	-0,002900
343,000000	-0,001000
342,000000	-0,001400
341,000000	-0,004600
340,000000	-0,003700
339,000000	-0,004500
338,000000	-0,005000
337,000000	-0,002400
336,000000	-0,001300
335,000000	-0,001800
334,000000	-0,006000
333,000000	-0,003600
332,000000	-0,004000
331,000000	-0,000500
330,000000	-0,001800
329,000000	-0,006300
328,000000	-0,005500
327,000000	-0,004700
326,000000	-0,003700
325,000000	-0,002500
324,000000	-0,001700
323,000000	-0,003200
322,000000	-0,005100
321,000000	-0,006100
320,000000	-0,002100
319,000000	-0,001800
318,000000	-0,002900
317,000000	-0,000500
316,000000	-0,005900
315,000000	-0,002900
314,000000	-0,002700
313,000000	-0,001800
312,000000	-0,002000
311,000000	-0,000300
310,000000	-0,006500
309,000000	-0,003000
308,000000	-0,003200
307,000000	-0,001800
306,000000	-0,001600
305,000000	-0,001200
304,000000	-0,007600
303,000000	-0,002500
302,000000	-0,003900
301,000000	-0,001700
300,000000	-0,002000
