PE UV       SUBTECH     SPECTRUM    ASCII       PEDS        4.00        
   -1
Sample6221.Sample.asc
24/04/11
00:18:47.00
24/04/11
00:18:47.00
Analyst

300,000000
1
Lambda 850
850N4111301
PerkinElmer UV WinLab 6.4.0.971 / 1.61.00 Lambda 800

0
0
2
0
0
VIS
1
1
1
RBeamAtt,SBeamAtt,150mm sphere / downward view
0
0
0
0
Fix
 
0
0,2
0
30
0
 
 
 
0
 
0
150
0
Front
100
 
S:100 R:100
 
0
0
0
 
0
 
 
 
0
 
 
0
0
0
0
0
 
 
 
 
0
0


0
0
#HDR
-1
-1
#GR
nm
EGY
1.0
0.0
900,000000
-1,000000
601
8
0,509400
-0,007500
#DATA
900,000000	-0,002900
899,000000	-0,003000
898,000000	-0,002400
897,000000	-0,004900
896,000000	-0,007500
895,000000	-0,001800
894,000000	-0,000600
893,000000	-0,001200
892,000000	-0,005400
891,000000	-0,002000
890,000000	-0,001600
889,000000	-0,001100
888,000000	-0,003100
887,000000	0,000700
886,000000	-0,002900
885,000000	-0,003100
884,000000	-0,002300
883,000000	-0,001700
882,000000	-0,002000
881,000000	-0,001700
880,000000	-0,002300
879,000000	-0,005300
878,000000	-0,006100
877,000000	0,000000
876,000000	-0,001000
875,000000	-0,001500
874,000000	-0,003700
873,000000	-0,000400
872,000000	-0,005900
871,000000	-0,000500
870,000000	-0,001100
869,000000	0,001000
868,000000	-0,001500
867,000000	-0,003700
866,000000	-0,002500
865,000000	0,000100
864,000000	0,001300
863,000000	-0,000200
862,000000	0,000100
861,000000	-0,001500
860,000000	-0,003500
859,000000	-0,001400
858,000000	0,000700
857,000000	0,000500
856,000000	-0,000100
855,000000	0,001200
854,000000	0,003700
853,000000	0,003800
852,000000	0,004900
851,000000	0,003700
850,000000	0,006900
849,000000	0,006900
848,000000	0,007500
847,000000	0,010000
846,000000	0,008600
845,000000	0,007800
844,000000	0,009300
843,000000	0,012900
842,000000	0,012800
841,000000	0,014600
840,000000	0,017300
839,000000	0,016200
838,000000	0,019300
837,000000	0,020200
836,000000	0,022600
835,000000	0,024100
834,000000	0,025200
833,000000	0,025900
832,000000	0,028700
831,000000	0,030200
830,000000	0,032500
829,000000	0,034400
828,000000	0,033500
827,000000	0,036800
826,000000	0,037100
825,000000	0,039800
824,000000	0,040300
823,000000	0,043000
822,000000	0,043200
821,000000	0,042400
820,000000	0,044700
819,000000	0,045700
818,000000	0,048200
817,000000	0,048700
816,000000	0,049500
815,000000	0,048900
814,000000	0,049900
813,000000	0,054000
812,000000	0,051300
811,000000	0,051100
810,000000	0,056300
809,000000	0,060000
808,000000	0,059600
807,000000	0,059400
806,000000	0,061000
805,000000	0,064400
804,000000	0,064400
803,000000	0,064400
802,000000	0,065500
801,000000	0,066000
800,000000	0,067000
799,000000	0,068200
798,000000	0,068700
797,000000	0,069800
796,000000	0,069900
795,000000	0,070600
794,000000	0,072300
793,000000	0,073500
792,000000	0,075000
791,000000	0,075000
790,000000	0,074000
789,000000	0,075700
788,000000	0,077200
787,000000	0,077900
786,000000	0,078300
785,000000	0,080200
784,000000	0,080600
783,000000	0,080000
782,000000	0,080700
781,000000	0,082800
780,000000	0,084100
779,000000	0,086200
778,000000	0,086300
777,000000	0,085500
776,000000	0,086800
775,000000	0,089700
774,000000	0,090500
773,000000	0,089500
772,000000	0,092100
771,000000	0,093800
770,000000	0,092700
769,000000	0,094400
768,000000	0,096300
767,000000	0,095500
766,000000	0,095100
765,000000	0,095500
764,000000	0,097400
763,000000	0,100500
762,000000	0,102000
761,000000	0,102600
760,000000	0,103900
759,000000	0,104800
758,000000	0,106500
757,000000	0,107800
756,000000	0,108000
755,000000	0,110700
754,000000	0,112100
753,000000	0,110500
752,000000	0,111800
751,000000	0,115400
750,000000	0,116700
749,000000	0,117100
748,000000	0,117400
747,000000	0,119100
746,000000	0,121200
745,000000	0,122600
744,000000	0,125400
743,000000	0,125500
742,000000	0,124800
741,000000	0,128100
740,000000	0,129800
739,000000	0,130300
738,000000	0,133700
737,000000	0,135600
736,000000	0,134100
735,000000	0,135700
734,000000	0,139500
733,000000	0,141700
732,000000	0,143400
731,000000	0,145000
730,000000	0,144900
729,000000	0,144700
728,000000	0,148700
727,000000	0,152200
726,000000	0,153000
725,000000	0,154000
724,000000	0,156000
723,000000	0,156500
722,000000	0,160300
721,000000	0,163900
720,000000	0,166900
719,000000	0,165600
718,000000	0,166800
717,000000	0,169900
716,000000	0,172900
715,000000	0,175300
714,000000	0,178800
713,000000	0,181400
712,000000	0,179900
711,000000	0,181900
710,000000	0,184500
709,000000	0,187400
708,000000	0,190000
707,000000	0,190000
706,000000	0,191600
705,000000	0,192600
704,000000	0,198100
703,000000	0,200400
702,000000	0,201500
701,000000	0,202400
700,000000	0,205200
699,000000	0,205500
698,000000	0,208500
697,000000	0,212200
696,000000	0,213400
695,000000	0,213600
694,000000	0,215300
693,000000	0,216400
692,000000	0,220500
691,000000	0,224600
690,000000	0,225700
689,000000	0,235900
688,000000	0,242100
687,000000	0,245600
686,000000	0,249600
685,000000	0,253200
684,000000	0,257600
683,000000	0,262600
682,000000	0,266900
681,000000	0,268200
680,000000	0,270200
679,000000	0,275700
678,000000	0,280500
677,000000	0,282300
676,000000	0,283200
675,000000	0,286500
674,000000	0,289300
673,000000	0,293000
672,000000	0,296800
671,000000	0,300300
670,000000	0,302300
669,000000	0,304700
668,000000	0,307200
667,000000	0,311800
666,000000	0,316800
665,000000	0,320500
664,000000	0,318500
663,000000	0,322800
662,000000	0,328700
661,000000	0,331600
660,000000	0,333600
659,000000	0,338800
658,000000	0,341000
657,000000	0,342100
656,000000	0,344000
655,000000	0,349400
654,000000	0,354200
653,000000	0,355700
652,000000	0,358900
651,000000	0,361600
650,000000	0,363300
649,000000	0,370000
648,000000	0,373100
647,000000	0,375300
646,000000	0,377100
645,000000	0,380000
644,000000	0,385300
643,000000	0,386900
642,000000	0,391100
641,000000	0,396300
640,000000	0,395700
639,000000	0,396900
638,000000	0,404400
637,000000	0,407400
636,000000	0,408600
635,000000	0,413800
634,000000	0,415300
633,000000	0,415700
632,000000	0,420000
631,000000	0,425700
630,000000	0,426100
629,000000	0,431200
628,000000	0,431800
627,000000	0,433600
626,000000	0,435400
625,000000	0,441700
624,000000	0,444800
623,000000	0,447000
622,000000	0,450000
621,000000	0,448900
620,000000	0,454800
619,000000	0,455600
618,000000	0,459700
617,000000	0,462600
616,000000	0,462800
615,000000	0,464400
614,000000	0,467500
613,000000	0,471400
612,000000	0,473200
611,000000	0,479000
610,000000	0,474500
609,000000	0,476700
608,000000	0,480300
607,000000	0,484200
606,000000	0,485600
605,000000	0,488800
604,000000	0,484500
603,000000	0,489700
602,000000	0,489700
601,000000	0,494600
600,000000	0,494700
599,000000	0,497600
598,000000	0,496500
597,000000	0,497800
596,000000	0,496700
595,000000	0,503100
594,000000	0,505100
593,000000	0,504600
592,000000	0,500300
591,000000	0,505700
590,000000	0,507000
589,000000	0,505700
588,000000	0,507400
587,000000	0,508500
586,000000	0,505000
585,000000	0,505500
584,000000	0,506100
583,000000	0,509400
582,000000	0,508100
581,000000	0,508400
580,000000	0,506000
579,000000	0,505200
578,000000	0,501700
577,000000	0,506100
576,000000	0,505300
575,000000	0,501900
574,000000	0,502400
573,000000	0,496400
572,000000	0,497400
571,000000	0,493200
570,000000	0,490000
569,000000	0,488400
568,000000	0,479500
567,000000	0,475800
566,000000	0,472800
565,000000	0,467700
564,000000	0,462400
563,000000	0,454700
562,000000	0,439200
561,000000	0,417200
560,000000	0,415500
559,000000	0,418200
558,000000	0,420100
557,000000	0,425600
556,000000	0,425200
555,000000	0,426200
554,000000	0,423400
553,000000	0,423100
552,000000	0,426300
551,000000	0,427200
550,000000	0,425300
549,000000	0,426500
548,000000	0,423100
547,000000	0,421600
546,000000	0,421100
545,000000	0,423300
544,000000	0,419900
543,000000	0,417700
542,000000	0,413600
541,000000	0,411400
540,000000	0,411000
539,000000	0,411300
538,000000	0,407900
537,000000	0,405000
536,000000	0,402100
535,000000	0,397100
534,000000	0,395300
533,000000	0,389500
532,000000	0,389400
531,000000	0,384400
530,000000	0,377900
529,000000	0,374300
528,000000	0,372100
527,000000	0,367700
526,000000	0,363900
525,000000	0,359200
524,000000	0,353800
523,000000	0,349900
522,000000	0,348600
521,000000	0,342500
520,000000	0,338100
519,000000	0,334000
518,000000	0,327800
517,000000	0,323500
516,000000	0,321200
515,000000	0,316700
514,000000	0,314800
513,000000	0,308600
512,000000	0,304700
511,000000	0,302000
510,000000	0,296300
509,000000	0,293600
508,000000	0,293300
507,000000	0,288400
506,000000	0,284900
505,000000	0,283200
504,000000	0,281500
503,000000	0,278100
502,000000	0,279200
501,000000	0,279300
500,000000	0,276400
499,000000	0,275000
498,000000	0,279600
497,000000	0,279800
496,000000	0,281900
495,000000	0,282400
494,000000	0,285900
493,000000	0,290000
492,000000	0,291800
491,000000	0,298700
490,000000	0,305600
489,000000	0,311800
488,000000	0,318900
487,000000	0,325900
486,000000	0,335000
485,000000	0,344700
484,000000	0,358200
483,000000	0,367200
482,000000	0,371500
481,000000	0,374700
480,000000	0,375900
479,000000	0,372000
478,000000	0,371000
477,000000	0,368700
476,000000	0,364600
475,000000	0,359600
474,000000	0,359100
473,000000	0,356200
472,000000	0,355400
471,000000	0,353400
470,000000	0,348500
469,000000	0,343400
468,000000	0,341400
467,000000	0,338300
466,000000	0,333300
465,000000	0,329700
464,000000	0,326300
463,000000	0,320100
462,000000	0,317000
461,000000	0,313500
460,000000	0,310500
459,000000	0,306500
458,000000	0,302800
457,000000	0,300900
456,000000	0,294400
455,000000	0,291300
454,000000	0,290700
453,000000	0,288800
452,000000	0,285200
451,000000	0,280900
450,000000	0,279100
449,000000	0,276900
448,000000	0,274700
447,000000	0,273300
446,000000	0,270000
445,000000	0,268800
444,000000	0,270000
443,000000	0,269200
442,000000	0,269400
441,000000	0,268900
440,000000	0,268400
439,000000	0,266900
438,000000	0,263800
437,000000	0,262800
436,000000	0,263100
435,000000	0,262400
434,000000	0,258800
433,000000	0,256300
432,000000	0,254800
431,000000	0,253200
430,000000	0,252800
429,000000	0,250700
428,000000	0,245700
427,000000	0,243400
426,000000	0,241800
425,000000	0,239500
424,000000	0,238600
423,000000	0,237900
422,000000	0,233000
421,000000	0,230000
420,000000	0,228600
419,000000	0,225400
418,000000	0,222800
417,000000	0,220200
416,000000	0,217000
415,000000	0,212800
414,000000	0,208000
413,000000	0,206000
412,000000	0,204600
411,000000	0,202800
410,000000	0,197000
409,000000	0,194400
408,000000	0,190400
407,000000	0,186000
406,000000	0,182600
405,000000	0,178700
404,000000	0,175400
403,000000	0,171100
402,000000	0,164100
401,000000	0,162400
400,000000	0,161400
399,000000	0,158600
398,000000	0,151700
397,000000	0,147400
396,000000	0,145000
395,000000	0,142700
394,000000	0,139400
393,000000	0,135600
392,000000	0,131600
391,000000	0,126900
390,000000	0,123300
389,000000	0,121000
388,000000	0,119200
387,000000	0,118600
386,000000	0,114700
385,000000	0,110000
384,000000	0,108100
383,000000	0,106200
382,000000	0,102900
381,000000	0,100000
380,000000	0,096300
379,000000	0,092100
378,000000	0,033600
377,000000	0,009200
376,000000	0,008300
375,000000	0,009300
374,000000	0,011600
373,000000	0,013500
372,000000	0,014300
371,000000	0,015200
370,000000	0,014700
369,000000	0,014100
368,000000	0,013200
367,000000	0,014900
366,000000	0,015700
365,000000	0,015000
364,000000	0,014000
363,000000	0,014800
362,000000	0,013400
361,000000	0,015500
360,000000	0,013000
359,000000	0,014000
358,000000	0,011700
357,000000	0,010800
356,000000	0,009600
355,000000	0,011100
354,000000	0,011500
353,000000	0,010700
352,000000	0,009700
351,000000	0,006700
350,000000	0,007100
349,000000	0,009200
348,000000	0,007500
347,000000	0,008200
346,000000	0,008700
345,000000	0,006500
344,000000	0,006700
343,000000	0,004600
342,000000	0,006200
341,000000	0,006000
340,000000	0,006200
339,000000	0,002900
338,000000	0,005300
337,000000	0,004800
336,000000	0,006100
335,000000	0,003800
334,000000	0,001200
333,000000	0,003400
332,000000	0,002400
331,000000	0,003100
330,000000	0,002300
329,000000	0,001400
328,000000	0,001900
327,000000	0,000600
326,000000	-0,002200
325,000000	0,002700
324,000000	0,003000
323,000000	0,000500
322,000000	0,001600
321,000000	0,001400
320,000000	-0,001900
319,000000	0,000600
318,000000	0,007900
317,000000	0,006700
316,000000	0,008000
315,000000	0,006000
314,000000	0,005500
313,000000	0,007400
312,000000	0,006900
311,000000	0,003200
310,000000	0,002300
309,000000	0,002200
308,000000	0,001700
307,000000	0,003300
306,000000	0,002200
305,000000	0,001300
304,000000	-0,000900
303,000000	-0,000700
302,000000	0,003900
301,000000	-0,001400
300,000000	0,001900
