PE UV       SUBTECH     SPECTRUM    ASCII       PEDS        4.00        
   -1
Sample6223.Sample.asc
24/04/11
00:28:08.00
24/04/11
00:28:08.00
Analyst

300,000000
1
Lambda 850
850N4111301
PerkinElmer UV WinLab 6.4.0.971 / 1.61.00 Lambda 800

0
0
2
0
0
VIS
1
1
1
RBeamAtt,SBeamAtt,150mm sphere / downward view
0
0
0
0
Fix
 
0
0,2
0
30
0
 
 
 
0
 
0
150
0
Front
100
 
S:100 R:100
 
0
0
0
 
0
 
 
 
0
 
 
0
0
0
0
0
 
 
 
 
0
0


0
0
#HDR
-1
-1
#GR
nm
EGY
1.0
0.0
900,000000
-1,000000
601
8
0,000600
-0,008400
#DATA
900,000000	-0,003500
899,000000	-0,002000
898,000000	-0,003000
897,000000	-0,006300
896,000000	-0,006000
895,000000	-0,000200
894,000000	-0,003100
893,000000	-0,002600
892,000000	-0,002100
891,000000	-0,002200
890,000000	-0,005600
889,000000	-0,001100
888,000000	-0,000300
887,000000	-0,001800
886,000000	-0,005900
885,000000	-0,001600
884,000000	-0,003100
883,000000	-0,003400
882,000000	-0,000400
881,000000	-0,001300
880,000000	-0,004100
879,000000	-0,002100
878,000000	-0,006100
877,000000	-0,001300
876,000000	-0,001800
875,000000	-0,001300
874,000000	-0,002500
873,000000	-0,006500
872,000000	-0,004800
871,000000	-0,002300
870,000000	-0,002100
869,000000	-0,003700
868,000000	-0,001600
867,000000	-0,006300
866,000000	-0,005300
865,000000	-0,000900
864,000000	-0,002600
863,000000	-0,001200
862,000000	-0,003500
861,000000	-0,003100
860,000000	-0,006900
859,000000	-0,002700
858,000000	-0,006400
857,000000	-0,003900
856,000000	-0,005800
855,000000	-0,001200
854,000000	-0,002200
853,000000	-0,003000
852,000000	-0,004500
851,000000	-0,004000
850,000000	-0,005200
849,000000	-0,000700
848,000000	-0,001800
847,000000	-0,003000
846,000000	-0,005700
845,000000	-0,004800
844,000000	-0,005100
843,000000	-0,003700
842,000000	-0,002200
841,000000	-0,002900
840,000000	-0,007200
839,000000	-0,004500
838,000000	-0,003900
837,000000	-0,004700
836,000000	-0,001900
835,000000	-0,002300
834,000000	-0,007100
833,000000	-0,004700
832,000000	-0,003100
831,000000	-0,005100
830,000000	-0,001900
829,000000	-0,000700
828,000000	-0,004000
827,000000	-0,006000
826,000000	-0,003100
825,000000	-0,002600
824,000000	-0,002200
823,000000	-0,002100
822,000000	-0,005200
821,000000	-0,006300
820,000000	-0,003200
819,000000	-0,003300
818,000000	-0,001800
817,000000	-0,001400
816,000000	-0,002400
815,000000	-0,004500
814,000000	-0,003400
813,000000	-0,004200
812,000000	-0,001500
811,000000	-0,000400
810,000000	-0,003500
809,000000	-0,003400
808,000000	-0,002600
807,000000	-0,003300
806,000000	-0,004300
805,000000	-0,003200
804,000000	-0,001900
803,000000	-0,001500
802,000000	-0,003300
801,000000	-0,005300
800,000000	-0,003400
799,000000	-0,004000
798,000000	-0,001700
797,000000	-0,001200
796,000000	-0,003300
795,000000	-0,003500
794,000000	-0,002500
793,000000	-0,003100
792,000000	-0,002300
791,000000	-0,000400
790,000000	-0,002600
789,000000	-0,005600
788,000000	-0,003800
787,000000	-0,002000
786,000000	-0,001200
785,000000	-0,002400
784,000000	-0,004800
783,000000	-0,005400
782,000000	-0,003200
781,000000	-0,003100
780,000000	-0,002200
779,000000	-0,002900
778,000000	-0,002400
777,000000	-0,001500
776,000000	-0,004100
775,000000	-0,003700
774,000000	-0,001000
773,000000	-0,002400
772,000000	-0,004900
771,000000	-0,004500
770,000000	-0,002800
769,000000	-0,002300
768,000000	-0,002300
767,000000	-0,002900
766,000000	-0,003400
765,000000	-0,004400
764,000000	-0,005500
763,000000	-0,004200
762,000000	-0,002900
761,000000	-0,003000
760,000000	-0,001300
759,000000	-0,002100
758,000000	-0,005500
757,000000	-0,004000
756,000000	-0,001600
755,000000	-0,003400
754,000000	-0,003200
753,000000	-0,003100
752,000000	-0,004900
751,000000	-0,003500
750,000000	-0,001800
749,000000	-0,002800
748,000000	-0,003800
747,000000	-0,004100
746,000000	-0,004900
745,000000	-0,003500
744,000000	-0,001300
743,000000	-0,001800
742,000000	-0,003300
741,000000	-0,005000
740,000000	-0,004600
739,000000	-0,002600
738,000000	-0,002900
737,000000	-0,003200
736,000000	-0,003100
735,000000	-0,004500
734,000000	-0,003200
733,000000	-0,001500
732,000000	-0,002700
731,000000	-0,003900
730,000000	-0,004400
729,000000	-0,005100
728,000000	-0,003600
727,000000	-0,001200
726,000000	-0,000100
725,000000	-0,001800
724,000000	-0,003000
723,000000	-0,004600
722,000000	-0,004800
721,000000	-0,003900
720,000000	-0,002000
719,000000	-0,002400
718,000000	-0,004700
717,000000	-0,005700
716,000000	-0,003400
715,000000	-0,001500
714,000000	-0,001600
713,000000	-0,001800
712,000000	-0,003700
711,000000	-0,005500
710,000000	-0,003400
709,000000	-0,000300
708,000000	-0,001100
707,000000	-0,005300
706,000000	-0,004400
705,000000	-0,004400
704,000000	-0,004800
703,000000	-0,002900
702,000000	-0,001800
701,000000	-0,004700
700,000000	-0,006700
699,000000	-0,004900
698,000000	-0,004200
697,000000	-0,002600
696,000000	-0,000800
695,000000	-0,005300
694,000000	-0,005000
693,000000	-0,003400
692,000000	-0,001600
691,000000	-0,002700
690,000000	-0,001400
689,000000	-0,004100
688,000000	-0,003600
687,000000	-0,005200
686,000000	-0,001700
685,000000	-0,003700
684,000000	-0,001200
683,000000	-0,001100
682,000000	-0,004700
681,000000	-0,005400
680,000000	-0,004400
679,000000	-0,005000
678,000000	-0,001800
677,000000	-0,001900
676,000000	-0,005000
675,000000	-0,005200
674,000000	-0,002700
673,000000	-0,003300
672,000000	-0,002200
671,000000	-0,002000
670,000000	-0,001700
669,000000	-0,004800
668,000000	-0,003600
667,000000	-0,002400
666,000000	-0,001700
665,000000	-0,002200
664,000000	-0,002700
663,000000	-0,003500
662,000000	-0,003100
661,000000	-0,003900
660,000000	-0,001500
659,000000	-0,001600
658,000000	-0,003700
657,000000	-0,003600
656,000000	-0,002900
655,000000	-0,003900
654,000000	-0,001900
653,000000	-0,001000
652,000000	-0,000700
651,000000	-0,006500
650,000000	-0,002700
649,000000	-0,003400
648,000000	-0,001700
647,000000	-0,000500
646,000000	-0,001300
645,000000	-0,005200
644,000000	-0,001900
643,000000	-0,002400
642,000000	-0,001900
641,000000	-0,002600
640,000000	-0,002100
639,000000	-0,004100
638,000000	-0,002300
637,000000	-0,004600
636,000000	-0,001500
635,000000	-0,000700
634,000000	-0,002700
633,000000	-0,005900
632,000000	-0,001900
631,000000	-0,004300
630,000000	-0,000400
629,000000	-0,000500
628,000000	-0,003000
627,000000	-0,007200
626,000000	-0,003300
625,000000	-0,004600
624,000000	-0,002300
623,000000	-0,000500
622,000000	-0,001500
621,000000	-0,001200
620,000000	-0,003200
619,000000	-0,003000
618,000000	-0,002100
617,000000	-0,000500
616,000000	-0,001700
615,000000	-0,002700
614,000000	-0,002600
613,000000	-0,002000
612,000000	-0,001500
611,000000	-0,001600
610,000000	-0,002800
609,000000	0,000200
608,000000	-0,001500
607,000000	-0,004000
606,000000	-0,001300
605,000000	-0,001200
604,000000	-0,004100
603,000000	-0,004300
602,000000	-0,003200
601,000000	-0,004200
600,000000	-0,001400
599,000000	0,000300
598,000000	-0,003100
597,000000	-0,001000
596,000000	-0,001400
595,000000	-0,002800
594,000000	-0,002300
593,000000	-0,000800
592,000000	-0,002600
591,000000	-0,001500
590,000000	-0,002500
589,000000	-0,000200
588,000000	-0,001000
587,000000	-0,001300
586,000000	-0,001500
585,000000	-0,002400
584,000000	-0,004800
583,000000	-0,004500
582,000000	-0,000800
581,000000	-0,001500
580,000000	-0,002900
579,000000	0,000500
578,000000	-0,002300
577,000000	-0,003400
576,000000	-0,002300
575,000000	0,000000
574,000000	-0,002300
573,000000	-0,001900
572,000000	-0,001800
571,000000	-0,003700
570,000000	-0,002400
569,000000	-0,002000
568,000000	-0,003200
567,000000	-0,001400
566,000000	-0,001900
565,000000	-0,001900
564,000000	-0,001100
563,000000	-0,001000
562,000000	-0,002300
561,000000	-0,004200
560,000000	-0,002500
559,000000	-0,002300
558,000000	-0,004400
557,000000	-0,001000
556,000000	-0,002500
555,000000	-0,001300
554,000000	-0,000500
553,000000	-0,000500
552,000000	-0,003700
551,000000	-0,002200
550,000000	0,000600
549,000000	-0,002800
548,000000	-0,002500
547,000000	-0,000800
546,000000	-0,003300
545,000000	-0,002600
544,000000	-0,001800
543,000000	-0,001800
542,000000	-0,003800
541,000000	-0,001800
540,000000	-0,004500
539,000000	-0,005900
538,000000	-0,001600
537,000000	-0,001500
536,000000	-0,004600
535,000000	-0,004900
534,000000	-0,004400
533,000000	-0,004100
532,000000	-0,000700
531,000000	-0,003500
530,000000	-0,003600
529,000000	-0,004300
528,000000	-0,006300
527,000000	-0,003400
526,000000	-0,001900
525,000000	-0,002100
524,000000	-0,004800
523,000000	-0,005500
522,000000	-0,004400
521,000000	-0,004800
520,000000	-0,000500
519,000000	-0,001500
518,000000	-0,005600
517,000000	-0,002700
516,000000	-0,003000
515,000000	-0,003100
514,000000	-0,002300
513,000000	-0,001500
512,000000	-0,003400
511,000000	-0,004300
510,000000	-0,003800
509,000000	-0,002400
508,000000	-0,002400
507,000000	-0,001800
506,000000	-0,005100
505,000000	-0,004600
504,000000	-0,003900
503,000000	-0,000600
502,000000	-0,001500
501,000000	-0,004100
500,000000	-0,003000
499,000000	-0,002500
498,000000	-0,005300
497,000000	-0,002900
496,000000	-0,002300
495,000000	-0,002300
494,000000	-0,002100
493,000000	-0,003000
492,000000	-0,003100
491,000000	-0,002100
490,000000	-0,001200
489,000000	-0,001200
488,000000	-0,004300
487,000000	-0,004000
486,000000	-0,003100
485,000000	-0,002300
484,000000	-0,002700
483,000000	-0,000700
482,000000	-0,001900
481,000000	-0,004700
480,000000	-0,004000
479,000000	-0,002200
478,000000	-0,002800
477,000000	-0,002400
476,000000	-0,002200
475,000000	-0,003900
474,000000	-0,003900
473,000000	-0,001800
472,000000	-0,001600
471,000000	-0,001400
470,000000	-0,002000
469,000000	-0,005200
468,000000	-0,004600
467,000000	-0,000800
466,000000	-0,001000
465,000000	-0,002700
464,000000	-0,004500
463,000000	-0,004900
462,000000	-0,003400
461,000000	-0,003500
460,000000	-0,001400
459,000000	-0,000900
458,000000	-0,003400
457,000000	-0,005700
456,000000	-0,002800
455,000000	-0,001100
454,000000	-0,002900
453,000000	-0,002500
452,000000	-0,004600
451,000000	-0,005800
450,000000	-0,003300
449,000000	-0,002200
448,000000	-0,000900
447,000000	-0,001900
446,000000	-0,004300
445,000000	-0,003100
444,000000	-0,002600
443,000000	-0,002900
442,000000	-0,001400
441,000000	-0,003000
440,000000	-0,003800
439,000000	-0,003900
438,000000	-0,005900
437,000000	-0,004300
436,000000	-0,000400
435,000000	-0,001500
434,000000	-0,005000
433,000000	-0,004900
432,000000	-0,004200
431,000000	-0,004100
430,000000	-0,002000
429,000000	-0,002300
428,000000	-0,004200
427,000000	-0,004000
426,000000	-0,004100
425,000000	-0,002900
424,000000	-0,002100
423,000000	-0,002000
422,000000	-0,004100
421,000000	-0,004700
420,000000	-0,003400
419,000000	-0,002400
418,000000	-0,000700
417,000000	-0,002200
416,000000	-0,005200
415,000000	-0,003300
414,000000	-0,003000
413,000000	-0,003400
412,000000	-0,002100
411,000000	-0,002600
410,000000	-0,003100
409,000000	-0,004400
408,000000	-0,002800
407,000000	-0,003000
406,000000	-0,003400
405,000000	-0,003200
404,000000	-0,004500
403,000000	-0,005600
402,000000	-0,005100
401,000000	-0,002200
400,000000	-0,002100
399,000000	-0,002300
398,000000	-0,002200
397,000000	-0,004400
396,000000	-0,003600
395,000000	-0,003600
394,000000	-0,003000
393,000000	-0,003000
392,000000	-0,003600
391,000000	-0,005100
390,000000	-0,005100
389,000000	-0,004400
388,000000	-0,001700
387,000000	-0,001600
386,000000	-0,003200
385,000000	-0,004000
384,000000	-0,003100
383,000000	-0,004500
382,000000	-0,002300
381,000000	-0,003000
380,000000	-0,004000
379,000000	-0,004000
378,000000	-0,005100
377,000000	-0,004400
376,000000	-0,003000
375,000000	-0,005900
374,000000	-0,003900
373,000000	-0,003300
372,000000	-0,003000
371,000000	-0,005100
370,000000	-0,007000
369,000000	-0,004800
368,000000	-0,005800
367,000000	-0,003600
366,000000	-0,002200
365,000000	-0,005600
364,000000	-0,003300
363,000000	-0,005500
362,000000	-0,004400
361,000000	-0,003600
360,000000	-0,002100
359,000000	-0,003100
358,000000	-0,004300
357,000000	-0,006300
356,000000	-0,003000
355,000000	-0,004000
354,000000	-0,003900
353,000000	-0,003100
352,000000	-0,003800
351,000000	-0,006100
350,000000	-0,003300
349,000000	-0,004800
348,000000	-0,001100
347,000000	-0,005100
346,000000	-0,003700
345,000000	-0,005800
344,000000	-0,005200
343,000000	-0,002300
342,000000	-0,002600
341,000000	-0,005300
340,000000	-0,005200
339,000000	-0,005600
338,000000	-0,002800
337,000000	-0,005300
336,000000	-0,001000
335,000000	-0,003200
334,000000	-0,003000
333,000000	-0,003300
332,000000	-0,003200
331,000000	-0,007600
330,000000	-0,002100
329,000000	-0,004900
328,000000	-0,008400
327,000000	-0,004300
326,000000	-0,003700
325,000000	-0,004000
324,000000	-0,002000
323,000000	-0,003000
322,000000	-0,003300
321,000000	-0,006400
320,000000	-0,003300
319,000000	-0,002400
318,000000	-0,004700
317,000000	-0,003500
316,000000	-0,003500
315,000000	-0,006500
314,000000	-0,000900
313,000000	-0,004200
312,000000	-0,003600
311,000000	-0,004200
310,000000	-0,008100
309,000000	-0,005000
308,000000	-0,003800
307,000000	-0,003500
306,000000	-0,001300
305,000000	-0,005400
304,000000	-0,003700
303,000000	-0,007500
302,000000	-0,004300
301,000000	-0,002500
300,000000	-0,002000
