PE UV       SUBTECH     SPECTRUM    ASCII       PEDS        4.00        
   -1
Sample6220.Sample.asc
24/04/11
00:15:16.00
24/04/11
00:15:16.00
Analyst

300,000000
1
Lambda 850
850N4111301
PerkinElmer UV WinLab 6.4.0.971 / 1.61.00 Lambda 800

0
0
2
0
0
VIS
1
1
1
RBeamAtt,SBeamAtt,150mm sphere / downward view
0
0
0
0
Fix
 
0
0,2
0
30
0
 
 
 
0
 
0
150
0
Front
100
 
S:100 R:100
 
0
0
0
 
0
 
 
 
0
 
 
0
0
0
0
0
 
 
 
 
0
0


0
0
#HDR
-1
-1
#GR
nm
EGY
1.0
0.0
900,000000
-1,000000
601
8
0,035100
-0,008100
#DATA
900,000000	-0,002200
899,000000	-0,002700
898,000000	-0,004600
897,000000	-0,005000
896,000000	-0,005300
895,000000	-0,003400
894,000000	-0,002300
893,000000	-0,000900
892,000000	-0,003300
891,000000	-0,003700
890,000000	-0,005600
889,000000	0,000100
888,000000	-0,000300
887,000000	-0,005000
886,000000	-0,004100
885,000000	-0,002200
884,000000	-0,006300
883,000000	-0,002900
882,000000	-0,000800
881,000000	-0,001000
880,000000	-0,003700
879,000000	-0,002700
878,000000	-0,003600
877,000000	-0,001600
876,000000	0,000200
875,000000	-0,000200
874,000000	-0,002900
873,000000	-0,003400
872,000000	-0,002900
871,000000	-0,001800
870,000000	-0,003200
869,000000	-0,001200
868,000000	-0,001800
867,000000	-0,006400
866,000000	-0,006500
865,000000	-0,001000
864,000000	-0,002300
863,000000	-0,001700
862,000000	-0,001700
861,000000	-0,005700
860,000000	-0,004700
859,000000	-0,002300
858,000000	-0,003400
857,000000	-0,005800
856,000000	-0,005200
855,000000	-0,002700
854,000000	-0,001700
853,000000	-0,000800
852,000000	-0,004500
851,000000	-0,004900
850,000000	-0,004000
849,000000	-0,001300
848,000000	-0,000600
847,000000	-0,001800
846,000000	-0,002300
845,000000	-0,004200
844,000000	-0,005500
843,000000	-0,000200
842,000000	0,000400
841,000000	-0,000600
840,000000	-0,003300
839,000000	-0,004200
838,000000	-0,004500
837,000000	-0,000100
836,000000	0,000700
835,000000	-0,001400
834,000000	-0,002700
833,000000	-0,002900
832,000000	-0,002600
831,000000	0,001300
830,000000	0,000500
829,000000	-0,000400
828,000000	-0,001500
827,000000	-0,003000
826,000000	-0,001700
825,000000	0,003400
824,000000	0,000600
823,000000	0,000000
822,000000	-0,000600
821,000000	-0,002400
820,000000	-0,001200
819,000000	0,001500
818,000000	0,002200
817,000000	-0,001100
816,000000	-0,000100
815,000000	-0,001400
814,000000	-0,000000
813,000000	0,002700
812,000000	0,002100
811,000000	0,001300
810,000000	-0,000700
809,000000	0,000400
808,000000	-0,001600
807,000000	0,001300
806,000000	0,001500
805,000000	0,001800
804,000000	0,002400
803,000000	0,001400
802,000000	-0,000600
801,000000	0,000000
800,000000	0,001900
799,000000	0,002900
798,000000	0,001600
797,000000	0,001500
796,000000	-0,000800
795,000000	0,000800
794,000000	0,002300
793,000000	0,003300
792,000000	0,003300
791,000000	0,002100
790,000000	0,000800
789,000000	0,000500
788,000000	0,002200
787,000000	0,005800
786,000000	0,003200
785,000000	0,001400
784,000000	0,000900
783,000000	0,001700
782,000000	0,002800
781,000000	0,004900
780,000000	0,003400
779,000000	0,001700
778,000000	0,001400
777,000000	0,002200
776,000000	0,001400
775,000000	0,003400
774,000000	0,004800
773,000000	0,003500
772,000000	0,001100
771,000000	0,001700
770,000000	0,004500
769,000000	0,005400
768,000000	0,003400
767,000000	0,003500
766,000000	0,002500
765,000000	0,002200
764,000000	0,004200
763,000000	0,006500
762,000000	0,003600
761,000000	0,002100
760,000000	0,003500
759,000000	0,002600
758,000000	0,003800
757,000000	0,007000
756,000000	0,005800
755,000000	0,004700
754,000000	0,004200
753,000000	0,003800
752,000000	0,004500
751,000000	0,006100
750,000000	0,006800
749,000000	0,005100
748,000000	0,003700
747,000000	0,004200
746,000000	0,006600
745,000000	0,007800
744,000000	0,007400
743,000000	0,006500
742,000000	0,004500
741,000000	0,004300
740,000000	0,007100
739,000000	0,007900
738,000000	0,005900
737,000000	0,007700
736,000000	0,006700
735,000000	0,003800
734,000000	0,007000
733,000000	0,008400
732,000000	0,007300
731,000000	0,008200
730,000000	0,006700
729,000000	0,007200
728,000000	0,007600
727,000000	0,008600
726,000000	0,009000
725,000000	0,008000
724,000000	0,007600
723,000000	0,008400
722,000000	0,008100
721,000000	0,007600
720,000000	0,010100
719,000000	0,011000
718,000000	0,007200
717,000000	0,007700
716,000000	0,011000
715,000000	0,009800
714,000000	0,010400
713,000000	0,011600
712,000000	0,009000
711,000000	0,009800
710,000000	0,009700
709,000000	0,011000
708,000000	0,010500
707,000000	0,012100
706,000000	0,010200
705,000000	0,009600
704,000000	0,010700
703,000000	0,010700
702,000000	0,011900
701,000000	0,011400
700,000000	0,010300
699,000000	0,010600
698,000000	0,010700
697,000000	0,010000
696,000000	0,010500
695,000000	0,011500
694,000000	0,008600
693,000000	0,009300
692,000000	0,010800
691,000000	0,009000
690,000000	0,010100
689,000000	0,010300
688,000000	0,011700
687,000000	0,008300
686,000000	0,010900
685,000000	0,010400
684,000000	0,010400
683,000000	0,010800
682,000000	0,012300
681,000000	0,010600
680,000000	0,011700
679,000000	0,009400
678,000000	0,012000
677,000000	0,012300
676,000000	0,012400
675,000000	0,011100
674,000000	0,012100
673,000000	0,012000
672,000000	0,011600
671,000000	0,013700
670,000000	0,014000
669,000000	0,011400
668,000000	0,012800
667,000000	0,013800
666,000000	0,014300
665,000000	0,014300
664,000000	0,018300
663,000000	0,012100
662,000000	0,016400
661,000000	0,016400
660,000000	0,016300
659,000000	0,016400
658,000000	0,018100
657,000000	0,016600
656,000000	0,017700
655,000000	0,018700
654,000000	0,017400
653,000000	0,019500
652,000000	0,020200
651,000000	0,015700
650,000000	0,020100
649,000000	0,017900
648,000000	0,019600
647,000000	0,021900
646,000000	0,020900
645,000000	0,018600
644,000000	0,023000
643,000000	0,020200
642,000000	0,022000
641,000000	0,022100
640,000000	0,024300
639,000000	0,020500
638,000000	0,023400
637,000000	0,022200
636,000000	0,023300
635,000000	0,023600
634,000000	0,025900
633,000000	0,022000
632,000000	0,024000
631,000000	0,024200
630,000000	0,025900
629,000000	0,023400
628,000000	0,026300
627,000000	0,024200
626,000000	0,026700
625,000000	0,023300
624,000000	0,026300
623,000000	0,027200
622,000000	0,026600
621,000000	0,023800
620,000000	0,026600
619,000000	0,026400
618,000000	0,026300
617,000000	0,026400
616,000000	0,030200
615,000000	0,023100
614,000000	0,031300
613,000000	0,027700
612,000000	0,028500
611,000000	0,028600
610,000000	0,031300
609,000000	0,026500
608,000000	0,030300
607,000000	0,028800
606,000000	0,031100
605,000000	0,030800
604,000000	0,029900
603,000000	0,029200
602,000000	0,030400
601,000000	0,030000
600,000000	0,031300
599,000000	0,031500
598,000000	0,030300
597,000000	0,030900
596,000000	0,032600
595,000000	0,029700
594,000000	0,032200
593,000000	0,030900
592,000000	0,035100
591,000000	0,028500
590,000000	0,034200
589,000000	0,032000
588,000000	0,033500
587,000000	0,030100
586,000000	0,034500
585,000000	0,027900
584,000000	0,032400
583,000000	0,033700
582,000000	0,031100
581,000000	0,033700
580,000000	0,034100
579,000000	0,030800
578,000000	0,032600
577,000000	0,031800
576,000000	0,034400
575,000000	0,033600
574,000000	0,033200
573,000000	0,030000
572,000000	0,033900
571,000000	0,029700
570,000000	0,034300
569,000000	0,032400
568,000000	0,030400
567,000000	0,031300
566,000000	0,030200
565,000000	0,030200
564,000000	0,031400
563,000000	0,029700
562,000000	0,033300
561,000000	0,027100
560,000000	0,026900
559,000000	0,028000
558,000000	0,027000
557,000000	0,024500
556,000000	0,027300
555,000000	0,028500
554,000000	0,029000
553,000000	0,028500
552,000000	0,027800
551,000000	0,027100
550,000000	0,027700
549,000000	0,028800
548,000000	0,027300
547,000000	0,027700
546,000000	0,027500
545,000000	0,025900
544,000000	0,029700
543,000000	0,026400
542,000000	0,028100
541,000000	0,028900
540,000000	0,026400
539,000000	0,023500
538,000000	0,028200
537,000000	0,027200
536,000000	0,026000
535,000000	0,026100
534,000000	0,024500
533,000000	0,023500
532,000000	0,024700
531,000000	0,026700
530,000000	0,024400
529,000000	0,023200
528,000000	0,021400
527,000000	0,021500
526,000000	0,022400
525,000000	0,022700
524,000000	0,022700
523,000000	0,019800
522,000000	0,019700
521,000000	0,018200
520,000000	0,022000
519,000000	0,019100
518,000000	0,020100
517,000000	0,018100
516,000000	0,016700
515,000000	0,014400
514,000000	0,019200
513,000000	0,017300
512,000000	0,017100
511,000000	0,015500
510,000000	0,013200
509,000000	0,013800
508,000000	0,015400
507,000000	0,015300
506,000000	0,015200
505,000000	0,012500
504,000000	0,012200
503,000000	0,013600
502,000000	0,014100
501,000000	0,014700
500,000000	0,014100
499,000000	0,010100
498,000000	0,011000
497,000000	0,013400
496,000000	0,012700
495,000000	0,013800
494,000000	0,013300
493,000000	0,010900
492,000000	0,011400
491,000000	0,012800
490,000000	0,013500
489,000000	0,015400
488,000000	0,014100
487,000000	0,013300
486,000000	0,014100
485,000000	0,013800
484,000000	0,018200
483,000000	0,018000
482,000000	0,017400
481,000000	0,018100
480,000000	0,015800
479,000000	0,016900
478,000000	0,017400
477,000000	0,017200
476,000000	0,017400
475,000000	0,014700
474,000000	0,014100
473,000000	0,014900
472,000000	0,017800
471,000000	0,017600
470,000000	0,016700
469,000000	0,014600
468,000000	0,013100
467,000000	0,015400
466,000000	0,016700
465,000000	0,015300
464,000000	0,014300
463,000000	0,013200
462,000000	0,013000
461,000000	0,013800
460,000000	0,014700
459,000000	0,015200
458,000000	0,014300
457,000000	0,013400
456,000000	0,012300
455,000000	0,011200
454,000000	0,013000
453,000000	0,013500
452,000000	0,011200
451,000000	0,009800
450,000000	0,010800
449,000000	0,012500
448,000000	0,012900
447,000000	0,011900
446,000000	0,012300
445,000000	0,011900
444,000000	0,009100
443,000000	0,009500
442,000000	0,011500
441,000000	0,010300
440,000000	0,011800
439,000000	0,011900
438,000000	0,008600
437,000000	0,009300
436,000000	0,010500
435,000000	0,009400
434,000000	0,008700
433,000000	0,009300
432,000000	0,009300
431,000000	0,009700
430,000000	0,009800
429,000000	0,008800
428,000000	0,008200
427,000000	0,006600
426,000000	0,007300
425,000000	0,009800
424,000000	0,009600
423,000000	0,009600
422,000000	0,009800
421,000000	0,007800
420,000000	0,006300
419,000000	0,008500
418,000000	0,009100
417,000000	0,008500
416,000000	0,010500
415,000000	0,009500
414,000000	0,005800
413,000000	0,007200
412,000000	0,008500
411,000000	0,006700
410,000000	0,006200
409,000000	0,005900
408,000000	0,005000
407,000000	0,005700
406,000000	0,007900
405,000000	0,008400
404,000000	0,007500
403,000000	0,007100
402,000000	0,006200
401,000000	0,005000
400,000000	0,006200
399,000000	0,008100
398,000000	0,005400
397,000000	0,003800
396,000000	0,003700
395,000000	0,004600
394,000000	0,006000
393,000000	0,002600
392,000000	0,002600
391,000000	0,002800
390,000000	0,004500
389,000000	0,005400
388,000000	0,003600
387,000000	0,003600
386,000000	0,002100
385,000000	0,002500
384,000000	0,000800
383,000000	0,002600
382,000000	0,005300
381,000000	0,001300
380,000000	0,000600
379,000000	0,002100
378,000000	-0,000600
377,000000	-0,003500
376,000000	-0,003300
375,000000	-0,001200
374,000000	-0,002000
373,000000	-0,000200
372,000000	-0,001900
371,000000	-0,001800
370,000000	-0,003900
369,000000	-0,002700
368,000000	-0,002900
367,000000	-0,000000
366,000000	-0,000600
365,000000	-0,002600
364,000000	-0,002500
363,000000	-0,003500
362,000000	-0,002400
361,000000	0,000200
360,000000	-0,001400
359,000000	-0,002200
358,000000	-0,005600
357,000000	-0,000900
356,000000	-0,002400
355,000000	-0,001500
354,000000	0,000300
353,000000	-0,002300
352,000000	-0,003700
351,000000	-0,002900
350,000000	-0,002300
349,000000	-0,001200
348,000000	-0,001600
347,000000	-0,000300
346,000000	-0,007400
345,000000	-0,003000
344,000000	-0,001900
343,000000	-0,000800
342,000000	-0,001600
341,000000	-0,001000
340,000000	-0,005000
339,000000	-0,002900
338,000000	-0,004000
337,000000	-0,001300
336,000000	-0,000700
335,000000	-0,004700
334,000000	-0,005800
333,000000	-0,001900
332,000000	-0,002700
331,000000	-0,003100
330,000000	-0,001100
329,000000	0,000700
328,000000	-0,008100
327,000000	-0,001500
326,000000	-0,003400
325,000000	-0,002800
324,000000	-0,001300
323,000000	-0,001000
322,000000	-0,006200
321,000000	-0,002800
320,000000	-0,004200
319,000000	-0,002000
318,000000	-0,002500
317,000000	-0,000800
316,000000	-0,007500
315,000000	0,000200
314,000000	-0,003500
313,000000	-0,001400
312,000000	-0,001900
311,000000	-0,002500
310,000000	-0,006800
309,000000	-0,005100
308,000000	-0,000500
307,000000	-0,002000
306,000000	-0,000800
305,000000	-0,005600
304,000000	-0,003500
303,000000	-0,003900
302,000000	-0,002800
301,000000	0,000300
300,000000	-0,003100
